-145
-145
-145
-145
-145
-145
-145
-145
-120
-135
-145
-150
-160
-155
-160
-175
-180
-185
-170
-155
-175
-180
-190
-180
-155
-135
-155
-190
-205
-235
-225
-245
-250
-260
-275
-275
-275
-265
-255
-265
-275
-290
-290
-290
-290
-285
-295
-305
-285
-275
-275
-280
-285
-305
-290
-300
-280
-290
-300
-315
-320
-335
-360
-385
-385
-405
-455
-485
-485
-425
-330
-220
-70
120
375
620
780
840
765
520
170
-165
-365
-435
-425
-370
-330
-325
-335
-345
-330
-325
-315
-310
-320
-335
-340
-325
-345
-335
-330
-335
-330
-325
-330
-330
-345
-355
-335
-325
-305
-320
-320
-330
-340
-335
-340
-345
-355
-355
-340
-330
-330
-330
-340
-350
-325
-325
-330
-330
-335
-335
-340
-330
-340
-350
-355
-350
-345
-330
-320
-335
-330
-345
-330
-335
-335
-345
-345
-355
-340
-340
-335
-330
-350
-350
-345
-335
-335
-335
-350
-355
-355
-345
-345
-335
-350
-360
-360
-360
-365
-360
-370
-385
-370
-360
-355
-360
-375
-375
-365
-365
-360
-360
-365
-370
-355
-330
-325
-325
-335
-340
-315
-300
-300
-290
-295
-290
-285
-275
-255
-250
-250
-265
-255
-245
-230
-245
-245
-255
-255
-240
-250
-255
-245
-255
-250
-250
-265
-260
-260
-265
-270
-265
-260
-275
-280
-290
-275
-270
-260
-280
-280
-285
-275
-275
-265
-270
-285
-290
-280
-275
-285
-280
-300
-300
-305
-295
-300
-310
-310
-305
-295
-285
-285
-290
-295
-310
-290
-295
-300
-305
-310
-325
-310
-300
-290
-310
-325
-330
-315
-300
-305
-310
-320
-330
-325
-315
-310
-305
-305
-310
-300
-305
-290
-300
-300
-305
-305
-290
-280
-295
-305
-315
-305
-295
-290
-280
-270
-275
-275
-270
-250
-250
-255
-225
-220
-205
-200
-205
-215
-230
-220
-225
-225
-225
-230
-235
-240
-235
-220
-210
-205
-245
-285
-285
-300
-310
-330
-330
-325
-315
-320
-315
-325
-340
-345
-340
-340
-350
-345
-355
-330
-335
-330
-320
-345
-355
-340
-330
-325
-330
-350
-365
-360
-380
-425
-445
-475
-510
-535
-505
-415
-300
-160
-15
235
490
720
875
940
905
755
490
165
-110
-270
-390
-450
-475
-455
-425
-390
-390
-385
-390
-380
-380
-380
-395
-385
-385
-385
-375
-395
-410
-410
-400
-395
-390
-405
-395
-385
-375
-390
-390
-405
-410
-410
-390
-390
-395
-405
-415
-400
-410
-405
-410
-415
-410
-400
-400
-395
-390
-405
-410
-390
-390
-385
-385
-410
-405
-395
-390
-375
-390
-395
-410
-400
-390
-390
-385
-405
-415
-415
-400
-395
-405
-415
-420
-420
-410
-415
-425
-420
-435
-430
-430
-420
-430
-450
-455
-450
-435
-445
-450
-455
-470
-460
-455
-450
-455
-470
-475
-460
-450
-445
-440
-435
-440
-410
-395
-370
-365
-360
-365
-340
-325
-315
-320
-330
-330
-320
-310
-300
-300
-320
-320
-315
-305
-305
-295
-320
-330
-305
-310
-300
-300
-320
-325
-310
-305
-315
-305
-315
-315
-310
-295
-290
-305
-310
-320
-315
-300
-315
-315
-315
-330
-315
-320
-315
-325
-335
-340
-335
-335
-330
-325
-345
-350
-345
-335
-330
-330
-345
-345
-345
-320
-330
-335
-340
-355
-335
-330
-330
-335
-355
-360
-355
-350
-340
-345
-345
-345
-345
-330
-330
-335
-345
-350
-350
-340
-330
-345
-345
-355
-350
-340
-330
-340
-340
-340
-330
-335
-330
-335
-345
-345
-340
-330
-315
-295
-300
-295
-285
-275
-265
-265
-265
-255
-250
-240
-225
-215
-240
-245
-240
-245
-235
-245
-250
-275
-275
-265
-250
-225
-220
-230
-265
-270
-280
-285
-305
-320
-340
-330
-335
-335
-355
-370
-360
-345
-350
-355
-365
-375
-380
-370
-365
-365
-380
-385
-380
-375
-355
-370
-390
-405
-410
-435
-465
-490
-520
-555
-570
-525
-405
-250
-90
120
410
690
885
960
850
520
50
-320
-500
-505
-445
-415
-395
-390
-395
-390
-395
-405
-395
-405
-390
-395
-395
-410
-405
-400
-400
-415
-405
-420
-415
-405
-405
-420
-420
-435
-420
-410
-410
-405
-425
-430
-420
-415
-410
-410
-425
-420
-400
-395
-400
-400
-395
-415
-405
-390
-400
-400
-415
-425
-425
-415
-415
-410
-425
-425
-420
-415
-400
-400
-410
-425
-410
-405
-395
-400
-400
-405
-385
-400
-390
-390
-400
-415
-405
-405
-410
-415
-420
-420
-425
-415
-415
-410
-435
-430
-435
-420
-420
-420
-420
-425
-425
-415
-395
-395
-390
-375
-360
-340
-335
-330
-335
-335
-325
-320
-305
-305
-315
-310
-305
-300
-300
-300
-310
-310
-310
-315
-300
-305
-315
-320
-325
-310
-305
-305
-320
-325
-305
-310
-295
-310
-325
-330
-320
-320
-320
-325
-350
-350
-340
-335
-330
-335
-340
-360
-350
-350
-355
-360
-355
-365
-355
-350
-340
-355
-350
-365
-365
-350
-355
-350
-370
-380
-370
-360
-365
-360
-365
-380
-370
-365
-350
-350
-350
-370
-365
-345
-345
-340
-355
-365
-360
-355
-355
-355
-375
-385
-355
-360
-355
-360
-360
-370
-360
-345
-355
-345
-345
-345
-340
-310
-305
-305
-310
-305
-290
-285
-275
-280
-280
-275
-265
-255
-245
-260
-265
-275
-280
-265
-270
-275
-280
-275
-280
-275
-265
-255
-240
-260
-280
-310
-310
-345
-360
-380
-385
-380
-370
-375
-385
-390
-395
-385
-385
-385
-395
-405
-400
-375
-375
-390
-395
-415
-405
-400
-390
-405
-425
-460
-475
-505
-510
-525
-540
-600
-645
-630
-575
-495
-385
-270
-115
90
370
635
810
860
770
475
65
-305
-500
-520
-475
-410
-390
-390
-400
-410
-405
-385
-390
-395
-405
-410
-405
-400
-390
-395
-410
-415
-410
-395
-405
-410
-405
-405
-410
-390
-385
-390
-395
-400
-400
-400
-395
-395
-405
-405
-400
-395
-385
-375
-385
-395
-390
-385
-375
-385
-395
-395
-385
-375
-375
-385
-395
-390
-390
-365
-375
-385
-395
-380
-385
-375
-380
-390
-380
-375
-375
-375
-375
-380
-390
-390
-365
-370
-375
-385
-390
-390
-375
-365
-385
-380
-390
-375
-375
-365
-370
-385
-395
-385
-385
-370
-365
-370
-375
-350
-335
-320
-315
-320
-325
-315
-295
-285
-300
-295
-285
-285
-280
-270
-280
-290
-295
-295
-290
-280
-290
-295
-310
-295
-285
-280
-275
-295
-305
-300
-295
-295
-285
-300
-305
-300
-295
-300
-305
-315
-310
-315
-295
-300
-310
-330
-340
-330
-320
-320
-315
-325
-335
-330
-315
-320
-320
-330
-345
-340
-335
-330
-335
-345
-350
-345
-340
-335
-335
-330
-335
-340
-335
-320
-340
-340
-350
-365
-360
-345
-345
-350
-350
-350
-340
-340
-345
-345
-380
-360
-360
-345
-345
-350
-355
-345
-330
-330
-335
-335
-340
-330
-320
-290
-290
-300
-305
-285
-280
-275
-280
-275
-270
-265
-250
-230
-245
-240
-255
-255
-245
-235
-255
-265
-260
-255
-270
-265
-280
-255
-250
-245
-265
-280
-300
-315
-325
-335
-345
-330
-335
-345
-360
-350
-340
-335
-345
-360
-365
-375
-370
-365
-365
-380
-375
-375
-365
-370
-360
-370
-380
-365
-360
-350
-355
-370
-385
-395
-430
-445
-485
-515
-565
-555
-475
-355
-220
-55
185
475
705
820
780
535
145
-200
-420
-500
-480
-450
-410
-400
-390
-390
-400
-405
-425
-425
-405
-395
-405
-405
-415
-405
-385
-390
-395
-395
-395
-395
-385
-390
-390
-400
-425
-410
-400
-395
-400
-405
-425
-415
-405
-405
-405
-410
-415
-405
-420
-405
-410
-410
-420
-415
-405
-395
-395
-395
-400
-395
-395
-405
-405
-420
-435
-415
-405
-395
-390
-415
-405
-405
-400
-395
-395
-405
-420
-415
-400
-395
-400
-405
-425
-425
-425
-420
-425
-450
-445
-450
-435
-445
-470
-455
-460
-440
-435
-425
-430
-445
-450
-445
-430
-420
-410
-425
-420
-405
-380
-370
-365
-365
-365
-345
-330
-315
-305
-305
-320
-310
-310
-305
-310
-315
-320
-315
-305
-305
-295
-310
-320
-310
-315
-295
-300
-305
-300
-285
-280
-290
-295
-305
-325
-305
-300
-300
-315
-325
-335
-325
-315
-320
-335
-330
-340
-325
-325
-320
-315
-335
-335
-345
-335
-325
-330
-315
-335
-330
-330
-330
-330
-335
-340
-330
-320
-315
-325
-335
-355
-345
-340
-335
-320
-325
-350
-330
-315
-315
-330
-330
-335
-335
-330
-330
-330
-340
-340
-340
-325
-325
-325
-345
-350
-340
-330
-320
-310
-305
-305
-275
-270
-255
-260
-265
-260
-250
-235
-235
-220
-235
-235
-220
-230
-225
-235
-245
-255
-240
-230
-230
-250
-255
-250
-230
-205
-195
-210
-230
-270
-270
-285
-285
-310
-330
-340
-340
-345
-350
-350
-340
-355
-345
-340
-340
-345
-355
-370
-355
-370
-345
-340
-360
-380
-360
-345
-350
-350
-355
-380
-390
-395
-425
-455
-475
-510
-545
-540
-495
-405
-295
-160
40
315
595
800
885
795
520
130
-215
-425
-500
-490
-450
-400
-390
-395
-395
-400
-390
-380
-385
-385
-400
-410
-410
-390
-390
-405
-405
-415
-410
-395
-395
-400
-415
-415
-415
-400
-390
-390
-410
-415
-405
-395
-395
-395
-405
-410
-410
-400
-390
-395
-410
-425
-415
-405
-410
-405
-415
-425
-425
-410
-395
-390
-400
-410
-410
-400
-390
-410
-420
-420
-415
-415
-405
-420
-415
-425
-410
-400
-405
-400
-400
-410
-400
-395
-395
-405
-410
-425
-425
-410
-410
-420
-430
-445
-440
-435
-430
-430
-450
-445
-445
-435
-435
-445
-440
-450
-430
-430
-415
-400
-400
-385
-365
-335
-330
-325
-330
-330
-310
-295
-285
-290
-290
-310
-295
-285
-280
-300
-290
-295
-290
-280
-275
-275
-290
-290
-285
-270
-270
-270
-275
-290
-285
-275
-275
-290
-295
-305
-295
-295
-285
-290
-300
-305
-310
-295
-300
-305
-310
-325
-325
-315
-310
-315
-315
-325
-320
-310
-320
-315
-330
-330
-320
-310
-310
-310
-330
-335
-330
-320
-325
-325
-330
-335
-330
-325
-325
-320
-325
-330
-325
-315
-305
-325
-315
-335
-330
-310
-320
-330
-330
-335
-330
-330
-320
-320
-330
-330
-325
-315
-315
-315
-330
-330
-320
-315
-305
-305
-295
-315
-300
-275
-255
-255
-260
-265
-255
-235
-230
-225
-220
-220
-215
-200
-205
-205
-225
-235
-240
-230
-215
-240
-240
-250
-235
-210
-200
-220
-255
-275
-285
-300
-305
-320
-330
-325
-320
-330
-330
-335
-340
-345
-340
-335
-320
-325
-335
-345
-345
-345
-335
-340
-345
-355
-340
-340
-340
-340
-345
-355
-365
-370
-405
-445
-480
-495
-520
-535
-505
-415
-280
-135
65
300
580
810
945
920
775
445
20
-295
-445
-470
-425
-380
-360
-360
-370
-380
-380
-375
-370
-365
-370
-385
-385
-375
-370
-370
-385
-395
-385
-385
-390
-385
-395
-410
-400
-395
-380
-395
-395
-400
-400
-395
-390
-390
-395
-405
-390
-385
-375
-375
-380
-390
-385
-370
-370
-370
-375
-385
-370
-390
-375
-370
-380
-390
-390
-385
-375
-375
-385
-395
-390
-385
-375
-380
-385
-390
-380
-380
-370
-370
-365
-390
-365
-365
-360
-375
-380
-400
-390
-375
-375
-370
-385
-390
-390
-390
-390
-375
-385
-395
-380
-370
-375
-375
-390
-405
-375
-370
-360
-375
-385
-380
-370
-360
-345
-345
-330
-330
-315
-310
-295
-285
-285
-295
-280
-270
-280
-280
-280
-290
-290
-280
-275
-280
-285
-290
-290
-280
-280
-285
-290
-300
-295
-285
-280
-285
-285
-295
-285
-280
-275
-280
-290
-310
-305
-285
-270
-270
-275
-285
-285
-270
-265
-265
-265
-280
-265
-245
-235
-235
-250
-250
-245
-215
-220
-245
-255
-230
-205
-210
-220
-230
-240
-240
-245
-250
-270
-285
-315
-320
-320
-310
-330
-340
-345
-360
-365
-360
-350
-355
-375
-385
-375
-370
-365
-365
-370
-380
-360
-350
-355
-355
-350
-365
-350
-350
-340
-355
-350
-375
-365
-375
-400
-430
-475
-520
-520
-550
-570
-540
-445
-305
-140
25
260
510
735
845
875
735
400
-25
-335
-480
-470
-415
-375
-365
-385
-400
-380
-390
-375
-385
-395
-405
-390
-380
-385
-385
-395
-400
-405
-400
-390
-390
-395
-400
-390
-385
-390
-385
-410
-420
-405
-410
-390
-390
-390
-400
-400
-390
-375
-380
-395
-400
-390
-400
-390
-395
-410
-415
-405
-385
-385
-380
-400
-400
-395
-390
-380
-375
-395
-395
-385
-380
-375
-385
-390
-400
-400
-385
-380
-395
-390
-400
-395
-385
-380
-385
-395
-405
-400
-390
-380
-380
-385
-405
-395
-400
-390
-400
-405
-425
-420
-405
-400
-405
-405
-415
-400
-390
-380
-385
-395
-405
-390
-370
-370
-370
-385
-370
-355
-345
-340
-335
-340
-355
-335
-325
-310
-305
-305
-320
-315
-310
-305
-305
-330
-325
-345
-325
-315
-315
-305
-310
-310
-300
-305
-305
-315
-320
-325
-315
-305
-315
-325
-325
-330
-315
-315
-310
-330
-340
-335
-330
-345
-355
-365
-370
-345
-340
-340
-345
-360
-365
-360
-360
-345
-355
-365
-350
-360
-350
-340
-345
-355
-370
-350
-350
-350
-345
-350
-355
-360
-345
-355
-350
-360
-370
-355
-355
-350
-355
-360
-390
-385
-360
-360
-370
-370
-390
-375
-370
-350
-340
-345
-360
-360
-350
-350
-335
-360
-365
-365
-360
-360
-365
-375
-385
-385
-365
-370
-375
-370
-375
-365
-355
-355
-360
-365
-370
-360
-350
-340
-345
-340
-350
-345
-350
-360
-350
-360
-370
-360
-360
-355
-360
-375
-375
-370
-350
-355
-360
-365
-375
-370
-365
-360
-355
-360
-360
-350
-340
-345
-345
-355
-360
-360
-365
-345
-355
-350
-360
-355
-360
-345
-335
-330
-330
-310
-305
-300
-305
-295
-305
-285
-275
-265
-255
-255
-260
-265
-255
-255
-260
-280
-290
-280
-270
-255
-275
-290
-320
-300
-295
-270
-265
-270
-285
-300
-310
-315
-320
-350
-370
-365
-365
-365
-370
-370
-370
-380
-360
-375
-375
-400
-420
-405
-400
-385
-380
-400
-415
-405
-395
-395
-395
-410
-430
-440
-455
-490
-485
-520
-570
-575
-525
-420
-305
-190
-20
220
485
715
845
885
790
560
225
-70
-285
-425
-500
-550
-535
-500
-465
-450
-450
-435
-420
-410
-410
-415
-420
-425
-420
-430
-430
-440
-450
-450
-430
-430
-430
-445
-445
-440
-425
-430
-430
-425
-445
-445
-430
-435
-435
-445
-445
-435
-430
-425
-430
-430
-440
-420
-430
-425
-430
-440
-440
-430
-430
-415
-425
-430
-455
-445
-445
-430
-430
-440
-440
-435
-430
-415
-415
-425
-425
-420
-405
-405
-415
-415
-425
-430
-405
-405
-405
-405
-430
-415
-410
-415
-430
-445
-465
-460
-450
-455
-460
-465
-485
-495
-475
-490
-500
-495
-515
-500
-485
-490
-485
-500
-500
-490
-480
-460
-460
-470
-465
-440
-430
-425
-410
-410
-400
-390
-380
-355
-350
-355
-350
-340
-330
-325
-305
-320
-315
-305
-300
-305
-305
-310
-330
-310
-315
-315
-320
-325
-325
-325
-310
-310
-315
-325
-330
-325
-325
-315
-320
-330
-335
-330
-315
-320
-320
-335
-335
-325
-325
-320
-320
-325
-350
-345
-345
-335
-345
-355
-355
-355
-345
-335
-335
-345
-355
-340
-335
-330
-335
-345
-350
-350
-340
-335
-330
-360
-355
-345
-335
-345
-350
-360
-380
-370
-345
-345
-350
-355
-365
-360
-345
-345
-350
-360
-360
-350
-355
-340
-345
-355
-355
-355
-340
-340
-345
-365
-370
-350
-330
-320
-315
-295
-305
-295
-300
-285
-275
-260
-275
-265
-260
-250
-245
-255
-265
-260
-260
-250
-260
-280
-280
-275
-285
-280
-255
-245
-245
-260
-285
-290
-300
-320
-335
-355
-350
-355
-355
-375
-385
-380
-360
-350
-360
-365
-370
-370
-365
-360
-365
-370
-385
-385
-365
-360
-380
-385
-395
-395
-385
-380
-395
-425
-465
-500
-515
-530
-560
-585
-530
-410
-255
-105
105
355
600
810
890
830
580
185
-205
-450
-525
-495
-465
-435
-415
-415
-415
-400
-395
-405
-425
-435
-415
-415
-415
-415
-430
-420
-410
-405
-420
-410
-420
-400
-395
-385
-400
-400
-400
-400
-395
-400
-400
-400
-410
-395
-410
-400
-395
-405
-410
-415
-405
-400
-395
-405
-415
-405
-415
-410
-405
-405
-410
-405
-400
-395
-405
-405
-400
-395
-390
-395
-390
-395
-420
-415
-405
-400
-400
-415
-420
-410
-395
-400
-405
-415
-435
-415
-415
-400
-405
-420
-430
-425
-410
-410
-405
-415
-425
-425
-420
-410
-410
-420
-430
-425
-420
-405
-415
-410
-410
-385
-370
-360
-350
-350
-350
-335
-320
-305
-315
-315
-320
-305
-305
-295
-290
-295
-295
-285
-285
-270
-280
-280
-295
-280
-285
-275
-285
-295
-305
-295
-285
-285
-290
-300
-310
-295
-300
-290
-285
-305
-310
-300
-295
-305
-300
-305
-320
-320
-310
-300
-310
-320
-340
-330
-310
-315
-325
-325
-345
-330
-320
-320
-335
-335
-355
-340
-320
-315
-330
-340
-340
-350
-330
-330
-340
-350
-355
-345
-335
-335
-340
-340
-345
-335
-335
-325
-325
-335
-340
-340
-320
-315
-320
-335
-335
-320
-325
-315
-320
-320
-345
-335
-320
-310
-320
-320
-340
-330
-320
-310
-310
-310
-295
-280
-255
-250
-250
-255
-260
-240
-220
-230
-230
-215
-220
-225
-230
-230
-235
-245
-255
-240
-235
-245
-235
-230
-220
-195
-220
-245
-260
-270
-290
-300
-305
-305
-320
-330
-350
-350
-335
-335
-335
-340
-350
-350
-345
-335
-345
-355
-370
-350
-345
-335
-335
-335
-355
-355
-345
-355
-395
-450
-480
-505
-525
-545
-500
-395
-255
-70
145
425
685
875
925
795
470
20
-325
-470
-485
-410
-365
-355
-365
-380
-385
-380
-370
-370
-375
-385
-395
-385
-380
-385
-375
-390
-405
-405
-390
-385
-385
-390
-410
-400
-390
-385
-385
-395
-390
-395
-380
-375
-380
-385
-400
-385
-380
-375
-380
-395
-395
-385
-375
-370
-365
-385
-395
-385
-385
-370
-375
-370
-375
-375
-370
-355
-365
-380
-375
-370
-380
-365
-370
-375
-390
-380
-375
-380
-370
-375
-380
-385
-385
-370
-375
-375
-380
-380
-380
-380
-375
-390
-395
-385
-385
-375
-375
-385
-385
-390
-370
-365
-365
-375
-385
-350
-345
-325
-325
-330
-325
-325
-315
-315
-315
-300
-300
-285
-270
-265
-260
-275
-285
-265
-255
-250
-270
-280
-285
-285
-280
-270
-270
-270
-285
-280
-275
-270
-265
-275
-290
-285
-285
-275
-270
-280
-295
-280
-270
-270
-275
-285
-300
-295
-290
-295
-300
-290
-305
-295
-290
-295
-290
-310
-320
-315
-315
-300
-305
-315
-330
-320
-305
-315
-305
-315
-325
-310
-295
-300
-305
-310
-325
-315
-315
-305
-305
-325
-320
-320
-310
-305
-320
-320
-320
-310
-305
-290
-285
-290
-305
-310
-300
-300
-310
-315
-315
-310
-295
-300
-295
-315
-310
-290
-265
-240
-255
-240
-250
-225
-225
-215
-210
-200
-195
-195
-180
-175
-180
-205
-215
-210
-210
-210
-210
-215
-225
-210
-180
-170
-185
-240
-255
-255
-270
-275
-285
-300
-300
-315
-305
-300
-295
-300
-315
-310
-310
-300
-300
-305
-315
-325
-320
-320
-320
-325
-340
-335
-325
-315
-320
-345
-370
-395
-425
-445
-465
-510
-530
-485
-370
-235
-90
105
375
655
820
865
735
450
60
-270
-430
-460
-415
-385
-365
-355
-355
-345
-350
-350
-360
-345
-340
-340
-335
-335
-355
-345
-340
-335
-340
-350
-365
-360
-365
-350
-345
-365
-360
-350
-355
-350
-355
-350
-360
-335
-335
-330
-340
-350
-350
-345
-335
-345
-355
-355
-370
-355
-350
-345
-365
-365
-370
-365
-355
-345
-345
-345
-340
-335
-325
-335
-345
-350
-350
-355
-355
-360
-350
-360
-365
-345
-345
-330
-350
-345
-355
-350
-340
-335
-350
-365
-380
-385
-355
-360
-355
-370
-385
-370
-370
-350
-345
-365
-365
-360
-345
-330
-330
-330
-335
-315
-310
-285
-290
-290
-300
-280
-275
-260
-260
-270
-265
-255
-250
-245
-245
-255
-265
-260
-255
-240
-250
-255
-275
-275
-265
-270
-275
-280
-290
-280
-275
-270
-270
-280
-290
-280
-285
-275
-290
-280
-290
-280
-285
-275
-280
-295
-305
-300
-300
-305
-315
-320
-310
-310
-300
-310
-310
-320
-325
-310
-320
-310
-310
-315
-325
-315
-305
-315
-310
-320
-325
-325
-320
-305
-305
-300
-315
-300
-310
-315
-305
-310
-320
-310
-300
-295
-300
-315
-325
-325
-305
-310
-290
-315
-325
-320
-290
-280
-260
-260
-265
-260
-250
-230
-220
-220
-235
-220
-205
-205
-210
-210
-230
-240
-230
-225
-235
-250
-265
-260
-245
-215
-215
-245
-280
-275
-275
-295
-310
-325
-340
-340
-325
-315
-310
-315
-330
-330
-325
-325
-335
-345
-350
-350
-350
-345
-350
-365
-360
-350
-355
-345
-345
-350
-365
-380
-405
-425
-440
-470
-520
-540
-490
-390
-260
-115
85
360
615
780
835
720
410
30
-255
-415
-470
-465
-435
-395
-375
-370
-375
-375
-390
-400
-380
-385
-385
-385
-385
-370
-370
-360
-380
-380
-385
-370
-370
-365
-375
-385
-390
-390
-385
-385
-395
-390
-400
-405
-390
-395
-390
-405
-405
-400
-375
-380
-390
-395
-395
-390
-390
-385
-405
-400
-405
-395
-390
-395
-390
-400
-405
-405
-390
-390
-395
-400
-400
-395
-380
-370
-380
-385
-395
-390
-380
-380
-385
-390
-390
-400
-400
-405
-415
-420
-430
-430
-425
-420
-430
-445
-465
-455
-440
-425
-435
-450
-440
-445
-425
-425
-425
-430
-430
-415
-415
-385
-375
-385
-370
-360
-350
-335
-335
-325
-320
-325
-305
-295
-300
-290
-295
-290
-290
-285
-285
-285
-290
-290
-285
-270
-270
-280
-290
-285
-275
-275
-275
-290
-305
-305
-300
-280
-290
-305
-315
-310
-295
-290
-300
-305
-305
-310
-300
-295
-305
-305
-315
-310
-310
-295
-300
-305
-310
-305
-305
-295
-300
-315
-325
-320
-320
-315
-310
-325
-335
-330
-320
-320
-310
-330
-330
-325
-310
-305
-305
-320
-330
-325
-300
-310
-305
-315
-330
-330
-330
-320
-325
-325
-335
-325
-315
-310
-315
-320
-325
-315
-310
-305
-310
-315
-320
-315
-310
-295
-295
-305
-310
-300
-280
-275
-265
-275
-275
-260
-240
-240
-235
-240
-235
-225
-215
-205
-205
-210
-215
-220
-220
-215
-220
-220
-230
-230
-240
-210
-220
-230
-255
-235
-210
-190
-205
-225
-260
-275
-280
-285
-305
-320
-315
-335
-325
-335
-320
-325
-320
-325
-325
-310
-305
-320
-320
-330
-320
-320
-330
-330
-360
-355
-330
-325
-325
-335
-350
-340
-345
-355
-385
-425
-450
-470
-485
-510
-515
-455
-325
-165
10
250
515
740
885
935
835
525
120
-230
-425
-455
-420
-380
-360
-365
-375
-380
-355
-355
-370
-375
-385
-380
-365
-370
-370
-365
-380
-370
-375
-365
-370
-380
-375
-365
-360
-360
-355
-355
-370
-365
-355
-350
-350
-350
-360
-360
-360
-350
-355
-365
-370
-360
-350
-355
-350
-355
-370
-375
-360
-350
-345
-350
-370
-370
-355
-350
-345
-360
-370
-365
-360
-350
-355
-365
-365
-370
-365
-350
-350
-360
-360
-355
-345
-350
-345
-355
-370
-365
-355
-360
-365
-365
-380
-385
-375
-370
-375
-385
-395
-375
-385
-380
-370
-385
-385
-380
-370
-360
-350
-335
-330
-315
-295
-290
-290
-285
-290
-280
-280
-260
-255
-270
-275
-260
-250
-245
-250
-260
-265
-245
-235
-245
-240
-250
-265
-250
-250
-250
-250
-255
-265
-260
-240
-250
-245
-250
-270
-265
-270
-265
-265
-275
-285
-275
-265
-270
-270
-280
-285
-285
-280
-285
-280
-285
-300
-290
-285
-270
-280
-295
-290
-290
-295
-290
-285
-305
-315
-310
-310
-290
-295
-310
-320
-315
-310
-300
-300
-315
-320
-315
-320
-290
-300
-300
-315
-310
-300
-300
-290
-310
-325
-315
-305
-305
-305
-315
-325
-320
-310
-300
-295
-315
-320
-305
-300
-290
-295
-295
-310
-295
-295
-285
-295
-295
-310
-300
-285
-280
-275
-280
-265
-245
-230
-240
-240
-240
-245
-220
-220
-215
-200
-200
-210
-205
-195
-205
-210
-215
-225
-225
-200
-200
-210
-225
-220
-195
-180
-175
-205
-245
-265
-275
-280
-285
-300
-310
-325
-320
-325
-310
-325
-330
-340
-335
-330
-325
-320
-340
-345
-340
-330
-335
-330
-340
-340
-335
-335
-330
-335
-345
-375
-395
-430
-440
-450
-450
-475
-480
-510
-550
-575
-545
-490
-375
-250
-120
60
285
525
740
860
890
730
425
15
-285
-435
-450
-435
-385
-380
-370
-370
-370
-360
-360
-370
-385
-365
-360
-365
-365
-375
-385
-360
-365
-355
-375
-380
-375
-355
-355
-360
-365
-380
-370
-355
-350
-355
-365
-380
-365
-355
-355
-365
-385
-390
-375
-355
-365
-360
-355
-365
-365
-355
-345
-345
-365
-360
-375
-355
-360
-365
-365
-370
-360
-355
-360
-365
-385
-380
-365
-355
-335
-360
-360
-385
-380
-375
-360
-360
-365
-375
-365
-355
-360
-350
-360
-370
-370
-365
-370
-380
-390
-385
-380
-370
-370
-365
-365
-390
-375
-370
-355
-365
-360
-370
-350
-340
-325
-320
-315
-325
-310
-295
-285
-290
-290
-275
-270
-265
-260
-260
-275
-275
-285
-260
-260
-265
-270
-280
-275
-255
-255
-245
-255
-260
-255
-255
-260
-265
-280
-295
-290
-275
-280
-280
-280
-285
-285
-280
-270
-285
-300
-310
-300
-290
-280
-300
-290
-310
-300
-295
-290
-285
-295
-325
-315
-310
-305
-300
-315
-330
-320
-320
-315
-320
-325
-335
-330
-325
-310
-315
-315
-335
-320
-310
-315
-310
-320
-335
-325
-325
-315
-310
-320
-330
-320
-320
-310
-330
-330
-345
-340
-330
-320
-315
-335
-335
-330
-310
-310
-315
-330
-320
-315
-300
-285
-280
-265
-260
-265
-260
-255
-260
-250
-255
-240
-230
-205
-210
-225
-235
-225
-225
-230
-225
-240
-240
-230
-235
-250
-250
-255
-235
-220
-205
-215
-240
-265
-280
-280
-270
-270
-290
-320
-335
-340
-330
-330
-335
-350
-360
-350
-350
-345
-350
-355
-365
-360
-355
-350
-340
-360
-370
-370
-355
-345
-350
-370
-385
-410
-440
-460
-490
-540
-565
-550
-485
-365
-255
-125
90
360
600
750
795
700
440
95
-185
-370
-470
-490
-470
-440
-425
-410
-410
-410
-420
-400
-395
-405
-410
-405
-420
-395
-395
-390
-395
-395
-410
-400
-400
-410
-400
-405
-410
-410
-400
-390
-390
-400
-400
-395
-390
-385
-390
-410
-410
-410
-415
-410
-405
-420
-420
-420
-415
-410
-415
-425
-425
-420
-425
-420
-410
-410
-415
-410
-410
-400
-405
-405
-425
-420
-410
-400
-405
-415
-420
-410
-410
-400
-410
-415
-420
-410
-400
-390
-400
-415
-420
-415
-415
-400
-415
-430
-450
-440
-440
-435
-435
-440
-450
-435
-440
-430
-440
-445
-445
-440
-435
-420
-415
-410
-405
-380
-375
-370
-370
-370
-360
-355
-325
-305
-310
-320
-325
-325
-315
-300
-305
-320
-330
-330
-310
-310
-310
-305
-310
-320
-305
-300
-300
-305
-320
-320
-315
-315
-310
-330
-335
-335
-320
-315
-315
-325
-330
-335
-320
-300
-300
-320
-320
-330
-320
-320
-325
-340
-355
-345
-350
-345
-345
-360
-360
-345
-340
-340
-355
-350
-350
-355
-340
-335
-340
-350
-355
-355
-355
-345
-345
-350
-360
-365
-365
-350
-350
-360
-370
-360
-350
-335
-350
-350
-345
-340
-340
-340
-340
-345
-350
-360
-350
-335
-345
-350
-350
-355
-340
-335
-330
-340
-355
-355
-330
-315
-315
-315
-320
-300
-300
-280
-265
-280
-285
-265
-235
-230
-230
-245
-255
-250
-245
-250
-255
-265
-270
-290
-280
-275
-260
-255
-260
-275
-295
-300
-305
-335
-355
-350
-350
-350
-355
-370
-370
-360
-365
-355
-365
-375
-385
-380
-375
-355
-370
-385
-390
-390
-370
-360
-370
-380
-385
-380
-375
-370
-380
-405
-445
-465
-480
-485
-525
-555
-535
-450
-325
-185
-25
185
430
660
815
850
750
485
110
-210
-390
-460
-485
-470
-450
-425
-415
-405
-415
-415
-420
-400
-395
-385
-395
-400
-420
-410
-400
-400
-405
-405
-435
-420
-410
-405
-415
-430
-440
-435
-415
-420
-430
-415
-430
-425
-420
-420
-415
-425
-425
-420
-410
-410
-410
-420
-430
-420
-415
-395
-405
-415
-430
-420
-420
-415
-420
-425
-440
-430
-425
-415
-420
-425
-440
-430
-430
-425
-420
-415
-425
-430
-425
-415
-405
-405
-425
-415
-420
-420
-420
-435
-435
-440
-420
-430
-450
-455
-465
-465
-465
-465
-465
-470
-490
-485
-460
-455
-460
-455
-455
-440
-425
-415
-400
-405
-400
-385
-365
-365
-360
-370
-375
-355
-340
-330
-330
-330
-340
-335
-320
-305
-315
-320
-320
-320
-315
-310
-310
-315
-330
-320
-320
-310
-320
-330
-340
-330
-325
-325
-320
-340
-350
-340
-320
-315
-325
-340
-345
-345
-340
-330
-335
-345
-360
-355
-340
-330
-335
-345
-365
-370
-350
-340
-335
-360
-355
-340
-335
-335
-320
-335
-355
-350
-345
-340
-335
-350
-370
-360
-355
-350
-345
-365
-360
-360
-350
-345
-355
-355
-365
-360
-345
-345
-350
-355
-360
-355
-350
-335
-335
-355
-345
-340
-330
-340
-345
-350
-355
-350
-335
-330
-330
-330
-330
-305
-285
-275
-280
-285
-290
-275
-260
-245
-240
-240
-240
-235
-225
-220
-230
-240
-255
-255
-240
-240
-250
-270
-270
-240
-230
-225
-265
-295
-305
-325
-315
-325
-330
-345
-360
-365
-355
-345
-340
-335
-360
-355
-345
-335
-355
-350
-375
-375
-365
-365
-350
-370
-380
-365
-370
-355
-370
-380
-385
-385
-400
-430
-465
-485
-520
-555
-525
-435
-305
-155
10
260
535
760
890
905
705
360
-30
-320
-455
-475
-440
-395
-380
-380
-385
-395
-400
-405
-395
-410
-390
-395
-405
-405
-395
-385
-385
-405
-405
-400
-385
-380
-385
-405
-410
-400
-395
-385
-395
-410
-405
-405
-395
-390
-395
-395
-405
-410
-400
-385
-395
-400
-395
-385
-385
-375
-375
-380
-395
-385
-390
-385
-380
-390
-400
-400
-390
-365
-375
-385
-400
-400
-390
-380
-375
-385
-395
-380
-370
-365
-365
-375
-385
-375
-375
-365
-370
-375
-400
-395
-405
-370
-385
-400
-410
-400
-395
-375
-380
-385
-405
-385
-375
-370
-365
-365
-350
-355
-320
-310
-310
-305
-310
-290
-280
-280
-270
-280
-285
-280
-285
-265
-270
-275
-290
-290
-275
-275
-270
-275
-290
-285
-285
-260
-260
-275
-285
-275
-265
-270
-280
-290
-295
-300
-280
-280
-275
-290
-300
-305
-285
-285
-285
-295
-300
-300
-295
-280
-295
-290
-305
-305
-300
-285
-285
-310
-315
-305
-305
-295
-300
-320
-335
-320
-320
-310
-315
-310
-330
-320
-310
-305
-305
-315
-315
-315
-305
-305
-300
-310
-310
-310
-310
-295
-300
-325
-325
-330
-320
-310
-305
-315
-330
-320
-310
-305
-300
-295
-320
-310
-300
-275
-270
-260
-250
-235
-230
-225
-230
-230
-240
-230
-225
-205
-205
-200
-210
-195
-200
-190
-200
-210
-225
-225
-220
-220
-220
-230
-250
-245
-230
-205
-185
-195
-225
-250
-255
-265
-275
-305
-320
-325
-325
-330
-330
-325
-335
-340
-335
-320
-335
-345
-355
-350
-355
-350
-345
-340
-355
-350
-340
-340
-340
-355
-400
-435
-455
-470
-500
-540
-545
-465
-355
-210
-35
185
435
675
820
825
640
320
-70
-340
-445
-445
-410
-380
-375
-375
-370
-365
-360
-370
-375
-370
-360
-350
-355
-365
-380
-380
-370
-365
-365
-380
-385
-390
-380
-375
-375
-380
-390
-380
-375
-370
-365
-375
-385
-365
-360
-350
-355
-355
-370
-365
-350
-360
-365
-365
-375
-375
-355
-355
-370
-375
-380
-385
-370
-370
-360
-370
-375
-365
-355
-345
-360
-355
-365
-360
-345
-335
-335
-355
-355
-350
-340
-350
-350
-355
-365
-360
-365
-365
-365
-370
-375
-380
-365
-350
-360
-365
-380
-375
-370
-360
-365
-375
-380
-375
-360
-355
-355
-355
-350
-350
-340
-330
-325
-335
-335
-330
-310
-300
-295
-305
-310
-285
-285
-265
-270
-285
-290
-275
-270
-255
-265
-265
-275
-270
-260
-250
-260
-270
-280
-290
-290
-280
-280
-290
-305
-300
-300
-295
-300
-290
-300
-310
-310
-295
-295
-300
-320
-315
-315
-300
-310
-305
-315
-305
-305
-305
-300
-305
-310
-315
-315
-315
-320
-335
-345
-335
-310
-325
-320
-330
-325
-325
-320
-320
-315
-325
-345
-335
-325
-325
-330
-335
-340
-335
-325
-320
-315
-335
-345
-335
-325
-325
-320
-325
-335
-320
-320
-310
-310
-320
-330
-340
-325
-305
-305
-290
-290
-270
-265
-265
-260
-260
-270
-275
-260
-245
-235
-230
-245
-240
-230
-240
-225
-240
-245
-240
-220
-220
-230
-245
-255
-240
-215
-225
-255
-285
-310
-310
-330
-335
-350
-350
-360
-355
-340
-340
-335
-350
-360
-360
-345
-345
-350
-350
-360
-350
-350
-345
-355
-355
-370
-375
-390
-425
-455
-475
-500
-540
-570
-510
-415
-335
-260
-150
-5
205
470
680
825
925
970
885
690
415
105
-150
-345
-435
-465
-455
-425
-415
-395
-375
-370
-395
-400
-400
-410
-400
-405
-400
-405
-395
-390
-380
-385
-405
-420
-405
-400
-390
-380
-395
-395
-400
-390
-410
-405
-410
-410
-395
-385
-395
-405
-420
-435
-415
-405
-410
-400
-410
-415
-410
-400
-405
-390
-390
-400
-390
-390
-390
-395
-420
-420
-415
-410
-395
-395
-400
-415
-415
-400
-400
-385
-390
-410
-395
-390
-380
-375
-390
-405
-420
-415
-415
-415
-435
-465
-455
-465
-460
-445
-455
-465
-475
-455
-460
-450
-455
-470
-455
-440
-420
-415
-420
-410
-410
-370
-360
-350
-350
-345
-335
-320
-300
-320
-315
-340
-325
-300
-300
-300
-310
-330
-310
-305
-300
-305
-315
-330
-310
-305
-310
-305
-310
-310
-310
-300
-305
-310
-310
-320
-315
-330
-315
-320
-340
-340
-335
-330
-320
-320
-325
-350
-340
-335
-335
-345
-350
-360
-360
-345
-335
-335
-335
-345
-335
-335
-330
-335
-335
-350
-345
-355
-345
-345
-355
-365
-360
-355
-345
-345
-345
-360
-345
-340
-335
-340
-345
-370
-370
-360
-340
-350
-365
-355
-350
-340
-340
-355
-355
-350
-350
-335
-340
-340
-330
-350
-315
-300
-290
-275
-280
-285
-275
-270
-255
-240
-250
-255
-240
-225
-225
-240
-255
-260
-275
-260
-245
-255
-265
-280
-270
-250
-235
-230
-245
-270
-280
-280
-290
-315
-335
-355
-355
-355
-360
-360
-375
-380
-360
-355
-350
-345
-370
-370
-355
-355
-350
-345
-355
-355
-360
-355
-355
-355
-360
-375
-370
-390
-425
-465
-490
-525
-560
-560
-495
-360
-220
-45
190
475
725
895
895
710
350
-55
-350
-480
-490
-465
-415
-405
-395
-405
-420
-395
-415
-400
-390
-385
-395
-405
-395
-400
-390
-390
-400
-415
-405
-390
-380
-380
-405
-390
-400
-390
-380
-380
-405
-400
-410
-400
-395
-400
-400
-405
-390
-380
-385
-385
-390
-405
-400
-400
-390
-390
-410
-410
-405
-400
-410
-405
-410
-415
-410
-405
-395
-405
-400
-400
-395
-405
-380
-385
-390
-410
-395
-390
-380
-385
-405
-405
-405
-400
-410
-410
-415
-435
-430
-415
-420
-420
-440
-440
-435
-435
-435
-430
-445
-445
-420
-425
-410
-405
-400
-410
-380
-370
-350
-340
-355
-345
-340
-315
-320
-300
-300
-315
-305
-300
-280
-290
-290
-300
-295
-295
-280
-285
-290
-295
-285
-280
-275
-265
-280
-295
-280
-280
-275
-290
-295
-310
-290
-290
-275
-270
-295
-315
-310
-300
-295
-290
-300
-315
-305
-300
-290
-310
-315
-330
-310
-305
-295
-295
-305
-325
-315
-315
-310
-300
-315
-335
-325
-325
-315
-310
-320
-335
-325
-310
-305
-305
-320
-325
-315
-310
-300
-315
-325
-320
-320
-320
-310
-310
-310
-315
-305
-285
-295
-305
-310
-315
-300
-315
-305
-305
-325
-325
-315
-300
-295
-310
-315
-320
-315
-310
-295
-285
-270
-250
-245
-230
-220
-225
-235
-230
-220
-205
-190
-190
-190
-205
-205
-205
-210
-215
-225
-230
-225
-220
-220
-240
-240
-230
-205
-195
-195
-220
-245
-275
-260
-275
-285
-300
-300
-310
-310
-320
-320
-325
-335
-345
-335
-335
-330
-335
-345
-360
-345
-335
-345
-345
-355
-360
-355
-340
-340
-350
-350
-355
-355
-355
-370
-425
-465
-480
-500
-530
-535
-485
-395
-255
-95
95
350
630
845
955
975
825
480
55
-270
-455
-485
-440
-405
-375
-375
-390
-380
-360
-355
-345
-365
-375
-370
-370
-355
-370
-375
-380
-385
-380
-380
-380
-385
-395
-395
-390
-385
-380
-380
-395
-390
-380
-370
-375
-385
-380
-375
-365
-360
-365
-365
-385
-370
-365
-355
-385
-395
-395
-385
-370
-380
-370
-375
-390
-385
-380
-370
-370
-385
-385
-380
-385
-370
-375
-375
-380
-380
-355
-360
-365
-370
-380
-370
-375
-360
-370
-380
-385
-375
-375
-370
-370
-385
-400
-395
-385
-395
-380
-400
-400
-400
-390
-390
-385
-400
-400
-385
-380
-380
-385
-385
-405
-395
-380
-370
-370
-380
-365
-355
-335
-325
-320
-320
-330
-315
-300
-295
-285
-295
-290
-285
-270
-260
-265
-275
-280
-275
-270
-270
-260
-270
-280
-285
-275
-265
-270
-285
-285
-285
-275
-280
-275
-285
-295
-295
-285
-280
-270
-285
-275
-290
-285
-280
-290
-300
-310
-310
-310
-300
-300
-315
-325
-315
-305
-310
-310
-315
-330
-325
-320
-320
-315
-325
-330
-335
-325
-320
-320
-315
-320
-310
-310
-300
-305
-320
-340
-335
-330
-320
-330
-330
-335
-340
-335
-325
-340
-345
-340
-340
-325
-340
-335
-340
-350
-340
-330
-330
-325
-335
-340
-335
-315
-315
-310
-320
-330
-320
-305
-310
-305
-295
-320
-305
-290
-285
-285
-285
-285
-265
-250
-250
-250
-250
-250
-250
-230
-215
-225
-225
-230
-230
-225
-215
-215
-230
-250
-240
-230
-230
-240
-250
-255
-220
-200
-200
-225
-265
-290
-290
-300
-310
-325
-335
-340
-350
-340
-340
-345
-330
-350
-345
-345
-340
-350
-355
-355
-355
-345
-340
-340
-355
-360
-360
-355
-345
-345
-360
-370
-375
-370
-380
-420
-465
-485
-515
-545
-575
-545
-450
-325
-195
-45
165
425
655
810
875
815
590
220
-150
-380
-470
-465
-425
-385
-375
-395
-385
-375
-355
-370
-360
-365
-370
-370
-360
-365
-375
-380
-370
-370
-370
-380
-385
-395
-390
-380
-375
-375
-395
-400
-395
-370
-370
-370
-365
-390
-385
-375
-360
-380
-390
-390
-385
-375
-375
-375
-380
-390
-380
-365
-380
-380
-385
-390
-390
-380
-380
-385
-395
-400
-385
-380
-360
-370
-375
-370
-385
-370
-365
-360
-365
-375
-380
-365
-370
-360
-370
-395
-385
-385
-390
-390
-390
-410
-390
-380
-390
-380
-395
-405
-405
-395
-390
-390
-410
-415
-390
-380
-390
-385
-390
-390
-380
-360
-355
-345
-340
-345
-330
-320
-315
-300
-305
-320
-300
-275
-275
-275
-275
-280
-285
-275
-275
-280
-295
-305
-305
-300
-290
-285
-295
-310
-300
-300
-295
-300
-305
-310
-315
-305
-310
-310
-315
-320
-305
-290
-285
-295
-300
-315
-310
-315
-320
-320
-330
-340
-320
-310
-320
-320
-330
-345
-340
-330
-330
-320
-330
-325
-325
-320
-315
-320
-330
-345
-320
-315
-315
-320
-325
-335
-340
-330
-325
-315
-335
-345
-340
-325
-320
-330
-345
-340
-330
-340
-325
-315
-310
-325
-315
-330
-315
-320
-325
-330
-330
-315
-310
-305
-310
-310
-300
-285
-275
-270
-270
-280
-265
-255
-250
-245
-250
-245
-225
-215
-220
-220
-230
-235
-240
-240
-230
-225
-240
-270
-250
-255
-235
-225
-215
-240
-260
-275
-285
-315
-320
-345
-350
-350
-360
-365
-355
-360
-360
-360
-350
-345
-355
-375
-365
-350
-345
-340
-335
-355
-365
-350
-345
-345
-355
-370
-370
-365
-360
-385
-415
-455
-465
-460
-475
-495
-555
-585
-550
-460
-345
-205
-40
190
455
680
840
880
725
400
0
-280
-435
-510
-485
-460
-430
-405
-410
-410
-415
-405
-415
-395
-390
-395
-405
-410
-410
-395
-390
-400
-400
-395
-400
-385
-385
-395
-410
-420
-410
-400
-390
-410
-415
-425
-425
-405
-400
-425
-415
-415
-410
-405
-400
-410
-405
-415
-410
-400
-395
-400
-405
-405
-415
-405
-400
-405
-410
-420
-415
-400
-395
-400
-415
-420
-410
-400
-395
-400
-415
-410
-415
-415
-405
-410
-420
-440
-430
-430
-425
-435
-435
-440
-450
-450
-450
-465
-470
-485
-465
-455
-450
-450
-470
-485
-460
-445
-435
-425
-430
-430
-415
-385
-365
-375
-360
-360
-350
-335
-335
-325
-335
-335
-335
-310
-310
-315
-315
-320
-315
-295
-295
-300
-305
-330
-325
-315
-325
-320
-330
-335
-335
-330
-305
-325
-325
-325
-325
-310
-305
-315
-325
-330
-325
-325
-340
-340
-340
-345
-340
-325
-330
-320
-325
-340
-340
-335
-340
-350
-355
-360
-350
-345
-345
-360
-355
-370
-365
-350
-360
-350
-360
-370
-360
-355
-345
-345
-350
-350
-345
-335
-330
-340
-345
-350
-345
-345
-340
-340
-345
-360
-350
-345
-335
-345
-345
-355
-345
-335
-325
-320
-305
-305
-300
-285
-280
-265
-275
-270
-245
-240
-230
-235
-230
-245
-245
-240
-250
-255
-255
-270
-265
-265
-265
-255
-250
-235
-230
-250
-260
-280
-305
-340
-330
-335
-330
-345
-350
-360
-360
-360
-365
-365
-355
-365
-360
-360
-360
-355
-375
-375
-365
-360
-370
-360
-380
-390
-385
-385
-365
-375
-375
-400
-395
-430
-460
-480
-510
-570
-585
-515
-385
-240
-85
125
405
675
865
935
840
555
140
-200
-405
-485
-485
-450
-385
-385
-385
-390
-385
-395
-390
-385
-385
-390
-395
-390
-390
-395
-380
-385
-390
-405
-400
-395
-390
-390
-390
-405
-375
-390
-380
-390
-385
-390
-385
-370
-365
-365
-380
-390
-390
-385
-375
-380
-390
-390
-395
-375
-385
-385
-400
-390
-385
-385
-375
-380
-395
-405
-385
-380
-375
-380
-380
-390
-390
-380
-355
-355
-370
-385
-375
-385
-375
-390
-390
-400
-400
-385
-390
-390
-405
-415
-405
-405
-405
-410
-425
-430
-420
-405
-410
-410
-410
-410
-400
-385
-370
-375
-360
-365
-355
-335
-315
-315
-310
-315
-295
-290
-270
-285
-290
-290
-280
-275
-255
-270
-275
-275
-280
-255
-245
-260
-255
-265
-260
-260
-240
-250
-260
-275
-265
-260
-260
-285
-285
-280
-285
-285
-265
-280
-275
-295
-295
-280
-275
-280
-285
-310
-305
-280
-290
-285
-290
-300
-310
-295
-295
-290
-315
-310
-310
-315
-305
-310
-320
-325
-310
-305
-310
-305
-315
-315
-305
-305
-300
-300
-315
-320
-305
-295
-300
-305
-300
-320
-310
-305
-295
-300
-310
-325
-315
-315
-300
-300
-310
-320
-315
-305
-300
-300
-300
-300
-285
-260
-245
-240
-245
-250
-240
-245
-230
-220
-230
-235
-230
-205
-200
-195
-210
-215
-205
-205
-205
-210
-225
-230
-225
-220
-220
-215
-200
-190
-190
-205
-225
-250
-270
-300
-305
-320
-320
-325
-335
-340
-335
-345
-330
-330
-345
-345
-350
-335
-335
-335
-340
-345
-340
-320
-325
-325
-335
-345
-350
-395
-430
-460
-505
-545
-575
-560
-455
-330
-235
-130
0
160
350
545
700
815
930
1035
1050
920
570
115
-245
-420
-425
-390
-355
-360
-365
-355
-350
-360
-365
-390
-385
-375
-370
-370
-380
-395
-385
-375
-365
-370
-385
-400
-385
-385
-370
-375
-385
-395
-390
-370
-360
-360
-365
-370
-370
-365
-355
-360
-370
-380
-380
-365
-370
-365
-380
-390
-380
-380
-365
-365
-375
-385
-385
-375
-360
-355
-370
-375
-370
-370
-355
-365
-360
-385
-385
-380
-360
-365
-375
-380
-370
-370
-370
-360
-385
-395
-380
-375
-365
-375
-385
-390
-375
-370
-370
-370
-370
-385
-380
-385
-370
-370
-370
-380
-370
-345
-340
-325
-335
-325
-305
-295
-295
-300
-300
-305
-295
-280
-285
-275
-265
-280
-275
-255
-265
-260
-265
-285
-285
-275
-260
-265
-285
-285
-290
-275
-275
-265
-275
-305
-290
-285
-285
-275
-295
-300
-280
-280
-270
-280
-295
-300
-310
-315
-305
-305
-335
-335
-320
-320
-310
-320
-330
-330
-330
-330
-310
-315
-320
-335
-330
-315
-310
-315
-330
-340
-335
-340
-305
-320
-330
-340
-335
-320
-320
-330
-330
-335
-325
-315
-320
-315
-320
-310
-310
-310
-305
-300
-310
-310
-300
-285
-290
-275
-275
-275
-270
-255
-240
-245
-240
-245
-245
-220
-205
-190
-195
-190
-200
-195
-200
-210
-215
-220
-210
-210
-200
-210
-220
-215
-220
-235
-225
-225
-220
-200
-205
-230
-250
-260
-285
-300
-315
-330
-325
-335
-340
-345
-330
-320
-320
-325
-335
-335
-335
-330
-330
-335
-350
-355
-350
-345
-340
-350
-360
-390
-400
-435
-465
-480
-515
-570
-580
-520
-400
-250
-95
100
395
660
830
880
760
460
70
-240
-425
-485
-480
-430
-400
-395
-400
-400
-395
-390
-375
-365
-370
-385
-395
-405
-390
-390
-385
-380
-395
-400
-380
-380
-375
-385
-395
-405
-400
-395
-395
-380
-395
-390
-395
-400
-390
-385
-390
-400
-390
-380
-380
-385
-380
-385
-370
-375
-370
-370
-375
-385
-385
-375
-385
-380
-400
-405
-400
-385
-380
-375
-395
-405
-405
-395
-390
-380
-385
-395
-375
-375
-380
-385
-375
-385
-385
-375
-380
-400
-405
-415
-410
-415
-400
-410
-410
-415
-415
-415
-415
-415
-425
-445
-430
-420
-415
-400
-410
-405
-385
-375
-350
-350
-350
-355
-335
-330
-305
-310
-325
-325
-315
-315
-310
-310
-305
-315
-320
-310
-305
-305
-305
-310
-295
-295
-290
-285
-285
-305
-305
-295
-290
-295
-295
-305
-305
-300
-300
-300
-320
-320
-325
-320
-320
-305
-325
-320
-315
-320
-310
-315
-310
-315
-315
-315
-305
-310
-315
-325
-330
-330
-325
-325
-330
-350
-350
-330
-325
-330
-350
-360
-350
-340
-330
-330
-330
-350
-350
-340
-325
-320
-330
-335
-350
-340
-345
-340
-330
-335
-340
-320
-325
-330
-350
-350
-335
-320
-310
-305
-295
-295
-275
-270
-255
-265
-250
-250
-250
-225
-220
-220
-230
-250
-250
-250
-235
-230
-245
-240
-235
-235
-230
-255
-260
-275
-265
-255
-230
-225
-240
-270
-285
-295
-305
-320
-355
-365
-360
-365
-355
-355
-360
-365
-365
-355
-345
-355
-370
-385
-370
-350
-350
-345
-360
-370
-370
-360
-345
-360
-365
-385
-390
-405
-430
-450
-470
-515
-550
-565
-505
-420
-295
-130
80
360
620
835
920
830
545
160
-180
-395
-490
-515
-470
-425
-410
-410
-415
-410
-405
-395
-395
-395
-405
-410
-400
-405
-395
-400
-410
-420
-415
-415
-405
-410
-430
-445
-445
-425
-415
-420
-420
-425
-420
-425
-410
-415
-435
-440
-435
-415
-415
-410
-410
-420
-430
-435
-425
-420
-420
-425
-425
-425
-420
-425
-425
-425
-420
-415
-415
-415
-420
-430
-425
-420
-415
-420
-420
-430
-420
-420
-410
-405
-425
-435
-440
-420
-415
-430
-440
-450
-450
-445
-445
-445
-465
-475
-490
-480
-475
-480
-485
-490
-485
-475
-455
-465
-460
-470
-455
-450
-435
-430
-430
-420
-415
-390
-385
-375
-375
-375
-360
-345
-335
-330
-345
-340
-335
-330
-325
-320
-330
-335
-325
-320
-310
-305
-325
-330
-325
-320
-305
-320
-320
-340
-325
-325
-330
-330
-345
-355
-350
-330
-325
-335
-335
-360
-350
-345
-355
-360
-350
-370
-350
-355
-350
-350
-350
-365
-355
-360
-350
-360
-365
-375
-365
-375
-365
-380
-380
-395
-385
-375
-370
-375
-375
-385
-375
-375
-360
-370
-375
-380
-375
-365
-360
-360
-365
-380
-380
-375
-355
-365
-370
-385
-375
-360
-365
-365
-380
-380
-370
-360
-360
-350
-360
-365
-350
-345
-335
-325
-320
-330
-320
-300
-300
-295
-305
-295
-285
-270
-270
-255
-265
-270
-275
-265
-275
-270
-285
-295
-295
-285
-275
-280
-300
-290
-285
-255
-240
-270
-300
-340
-340
-350
-360
-380
-390
-405
-400
-385
-385
-385
-405
-410
-405
-390
-400
-395
-415
-415
-405
-395
-390
-390
-405
-415
-415
-400
-405
-430
-480
-525
-550
-570
-595
-645
-640
-570
-440
-335
-250
-150
-15
160
410
665
855
955
910
645
215
-195
-445
-540
-510
-485
-435
-445
-440
-440
-440
-450
-455
-455
-450
-455
-460
-470
-465
-450
-440
-450
-445
-460
-460
-440
-445
-445
-450
-455
-450
-455
-435
-455
-450
-455
-455
-445
-440
-435
-435
-450
-445
-430
-440
-450
-450
-455
-460
-440
-435
-445
-455
-460
-455
-440
-445
-440
-450
-465
-450
-455
-440
-440
-450
-475
-455
-450
-450
-440
-440
-455
-440
-440
-435
-440
-445
-455
-450
-440
-435
-450
-445
-455
-450
-445
-445
-455
-470
-470
-480
-465
-455
-455
-465
-470
-470
-455
-455
-460
-450
-455
-445
-435
-410
-420
-420
-425
-410
-390
-370
-370
-375
-380
-360
-350
-350
-335
-340
-355
-355
-340
-330
-345
-350
-345
-345
-330
-315
-325
-340
-340
-340
-340
-335
-345
-350
-370
-350
-345
-335
-355
-365
-360
-365
-360
-350
-355
-355
-375
-375
-370
-355
-355
-375
-375
-385
-365
-360
-365
-390
-390
-385
-380
-385
-390
-390
-405
-390
-395
-390
-395
-410
-415
-415
-405
-395
-405
-415
-420
-410
-420
-400
-400
-405
-415
-420
-400
-395
-385
-405
-410
-410
-405
-395
-405
-410
-410
-415
-415
-405
-395
-405
-410
-410
-400
-395
-395
-395
-405
-390
-370
-365
-355
-355
-355
-350
-340
-330
-325
-340
-345
-345
-325
-300
-305
-305
-320
-300
-315
-295
-305
-320
-330
-320
-300
-295
-310
-325
-320
-300
-280
-295
-330
-365
-385
-390
-395
-395
-410
-420
-440
-430
-420
-415
-410
-430
-435
-430
-430
-420
-420
-440
-445
-430
-430
-425
-430
-430
-445
-440
-455
-430
-440
-455
-480
-510
-545
-565
-580
-635
-665
-630
-510
-355
-200
-25
240
540
755
845
795
550
120
-285
-520
-585
-560
-520
-500
-470
-475
-470
-460
-480
-485
-485
-470
-465
-475
-480
-490
-485
-475
-470
-475
-490
-495
-495
-495
-480
-490
-485
-495
-490
-485
-480
-475
-485
-490
-485
-480
-475
-485
-485
-510
-495
-490
-485
-475
-475
-495
-475
-475
-475
-470
-495
-495
-495
-490
-470
-485
-495
-505
-495
-490
-490
-480
-490
-500
-495
-490
-475
-480
-490
-500
-480
-485
-475
-480
-480
-480
-470
-465
-460
-475
-475
-480
-490
-480
-470
-480
-495
-505
-505
-485
-485
-485
-495
-505
-505
-490
-485
-500
-490
-500
-480
-470
-445
-450
-450
-450
-425
-405
-385
-385
-395
-390
-385
-375
-370
-375
-385
-390
-390
-385
-370
-370
-390
-385
-385
-385
-375
-375
-380
-390
-370
-380
-365
-370
-375
-390
-380
-365
-365
-370
-375
-395
-390
-390
-380
-390
-405
-415
-415
-410
-395
-395
-410
-420
-410
-415
-400
-420
-425
-430
-430
-425
-410
-410
-410
-425
-425
-410
-410
-420
-420
-445
-450
-435
-430
-430
-440
-450
-445
-440
-420
-420
-430
-445
-445
-435
-425
-425
-445
-450
-445
-435
-425
-420
-430
-430
-430
-420
-405
-415
-420
-425
-425
-420
-425
-420
-425
-440
-440
-425
-420
-420
-415
-425
-400
-380
-365
-370
-370
-365
-355
-345
-330
-320
-320
-330
-325
-315
-315
-315
-325
-340
-345
-335
-325
-335
-355
-380
-360
-345
-305
-295
-315
-335
-365
-370
-375
-385
-405
-430
-430
-430
-430
-435
-450
-460
-460
-460
-455
-450
-450
-465
-470
-470
-460
-475
-480
-490
-480
-465
-465
-480
-485
-495
-495
-490
-490
-525
-555
-600
-610
-620
-655
-680
-655
-575
-445
-310
-130
125
395
600
725
715
530
185
-195
-455
-590
-615
-585
-545
-535
-535
-535
-525
-505
-515
-505
-515
-515
-490
-495
-500
-490
-520
-510
-520
-505
-505
-505
-515
-515
-500
-510
-515
-525
-530
-525
-535
-520
-525
-520
-530
-520
-520
-510
-515
-510
-530
-530
-520
-510
-505
-525
-530
-525
-510
-495
-500
-510
-520
-520
-515
-505
-500
-510
-520
-505
-515
-510
-520
-505
-505
-515
-525
-500
-495
-495
-505
-495
-490
-475
-490
-495
-510
-505
-500
-500
-500
-505
-515
-505
-505
-515
-510
-525
-535
-535
-540
-520
-540
-540
-560
-550
-540
-545
-540
-545
-550
-555
-530
-520
-515
-500
-505
-505
-485
-465
-470
-460
-460
-455
-435
-430
-425
-430
-440
-440
-435
-410
-410
-415
-420
-410
-400
-395
-390
-405
-410
-405
-390
-400
-405
-415
-415
-415
-410
-400
-410
-410
-425
-415
-395
-405
-400
-415
-420
-425
-410
-400
-405
-420
-420
-415
-410
-410
-420
-425
-440
-435
-430
-430
-430
-430
-445
-450
-435
-425
-420
-425
-430
-455
-450
-440
-430
-440
-440
-440
-430
-420
-415
-425
-450
-455
-450
-445
-435
-435
-450
-450
-445
-430
-425
-450
-460
-445
-440
-425
-420
-445
-450
-435
-425
-410
-420
-440
-445
-435
-430
-430
-425
-430
-425
-410
-410
-380
-365
-370
-400
-390
-370
-355
-350
-360
-380
-370
-355
-330
-325
-325
-330
-320
-320
-315
-320
-340
-355
-350
-340
-340
-360
-370
-385
-370
-340
-325
-335
-380
-390
-410
-420
-420
-440
-450
-460
-445
-455
-435
-445
-450
-460
-465
-460
-455
-455
-465
-480
-465
-455
-455
-470
-470
-475
-485
-470
-480
-460
-480
-485
-485
-495
-525
-540
-570
-595
-635
-670
-630
-540
-415
-280
-80
165
435
675
800
830
660
345
-40
-350
-530
-605
-625
-590
-545
-520
-510
-530
-515
-500
-495
-495
-505
-505
-505
-495
-500
-500
-500
-520
-505
-495
-495
-500
-510
-515
-510
-500
-480
-500
-505
-520
-515
-505
-490
-510
-505
-500
-505
-490
-480
-490
-485
-500
-500
-490
-485
-495
-505
-505
-510
-500
-490
-490
-500
-510
-515
-495
-495
-490
-515
-510
-505
-495
-495
-485
-490
-510
-495
-485
-480
-480
-495
-510
-520
-510
-505
-515
-520
-540
-540
-520
-530
-535
-540
-555
-555
-540
-540
-545
-540
-550
-540
-530
-530
-525
-525
-520
-510
-495
-480
-465
-470
-465
-455
-440
-415
-415
-410
-410
-390
-390
-380
-380
-390
-395
-385
-380
-365
-375
-385
-375
-380
-370
-365
-370
-380
-400
-395
-390
-385
-395
-400
-410
-410
-400
-390
-395
-395
-405
-405
-395
-385
-400
-410
-410
-410
-400
-385
-395
-395
-400
-405
-390
-385
-405
-415
-420
-415
-410
-410
-405
-420
-435
-430
-430
-420
-410
-425
-440
-445
-415
-415
-420
-420
-445
-425
-410
-415
-420
-410
-420
-405
-400
-390
-390
-395
-410
-405
-395
-395
-395
-405
-420
-420
-405
-395
-390
-410
-415
-415
-410
-390
-390
-400
-395
-395
-375
-370
-345
-350
-340
-330
-320
-300
-305
-320
-320
-310
-285
-275
-280
-290
-295
-305
-300
-300
-310
-315
-325
-305
-305
-315
-315
-310
-305
-275
-255
-260
-295
-325
-340
-350
-350
-360
-375
-380
-405
-400
-405
-390
-405
-415
-425
-420
-415
-420
-410
-425
-425
-430
-410
-410
-400
-420
-430
-425
-415
-430
-450
-490
-540
-550
-570
-595
-605
-555
-425
-255
-80
160
445
705
885
1004
1045
975
740
350
-70
-405
-550
-560
-535
-500
-455
-455
-445
-445
-440
-455
-465
-465
-465
-465
-465
-480
-485
-480
-470
-470
-460
-460
-475
-475
-470
-455
-455
-460
-460
-460
-455
-450
-450
-455
-475
-465
-465
-450
-450
-455
-480
-470
-445
-435
-440
-450
-460
-460
-445
-430
-425
-450
-460
-455
-450
-440
-445
-440
-450
-445
-440
-435
-450
-450
-455
-455
-460
-450
-435
-465
-465
-450
-435
-430
-435
-450
-465
-465
-460
-455
-455
-460
-470
-470
-460
-450
-455
-460
-475
-460
-460
-450
-450
-445
-445
-435
-425
-420
-415
-395
-405
-385
-385
-370
-360
-360
-360
-355
-355
-335
-335
-345
-340
-335
-320
-320
-325
-325
-335
-330
-325
-325
-335
-350
-360
-365
-345
-335
-350
-350
-355
-360
-345
-330
-330
-345
-355
-355
-340
-345
-350
-360
-370
-375
-360
-365
-360
-365
-380
-375
-365
-365
-365
-375
-390
-385
-375
-370
-370
-375
-390
-380
-370
-345
-360
-370
-385
-375
-375
-370
-370
-395
-400
-385
-390
-380
-385
-380
-395
-390
-385
-375
-375
-380
-390
-380
-375
-375
-365
-370
-370
-355
-360
-350
-335
-350
-350
-340
-320
-295
-295
-305
-315
-300
-285
-285
-285
-285
-270
-275
-260
-245
-250
-260
-270
-280
-280
-265
-265
-265
-275
-270
-255
-240
-230
-240
-275
-310
-305
-320
-330
-350
-370
-375
-365
-370
-370
-370
-380
-385
-380
-370
-360
-370
-385
-375
-375
-380
-380
-395
-400
-400
-390
-390
-390
-395
-415
-425
-435
-475
-500
-525
-570
-605
-595
-500
-360
-230
-55
200
500
730
855
835
620
225
-160
-415
-525
-515
-470
-435
-415
-415
-410
-405
-415
-420
-415
-400
-415
-420
-430
-420
-405
-410
-400
-415
-430
-420
-425
-405
-410
-420
-435
-430
-425
-415
-420
-425
-435
-425
-420
-410
-410
-420
-425
-415
-405
-400
-405
-400
-410
-420
-405
-395
-415
-410
-430
-425
-415
-415
-410
-420
-430
-425
-410
-410
-400
-405
-415
-420
-405
-400
-390
-400
-400
-405
-395
-390
-405
-400
-430
-430
-420
-415
-405
-425
-435
-430
-425
-415
-425
-425
-440
-435
-415
-415
-425
-430
-435
-410
-395
-385
-375
-380
-385
-380
-365
-345
-345
-360
-365
-345
-340
-325
-325
-330
-340
-335
-325
-310
-305
-310
-335
-330
-320
-315
-310
-310
-315
-305
-305
-295
-300
-315
-330
-330
-315
-305
-325
-335
-335
-340
-335
-320
-340
-355
-350
-360
-350
-340
-335
-345
-360
-350
-350
-345
-345
-355
-365
-360
-360
-355
-360
-370
-375
-385
-375
-370
-380
-385
-385
-380
-380
-370
-370
-375
-370
-370
-360
-360
-355
-380
-400
-395
-390
-380
-380
-390
-385
-370
-375
-365
-360
-365
-380
-380
-370
-375
-380
-390
-395
-390
-355
-350
-360
-375
-385
-380
-375
-350
-355
-355
-355
-345
-330
-315
-310
-325
-315
-300
-285
-265
-255
-270
-265
-265
-255
-255
-265
-275
-290
-275
-275
-285
-295
-300
-290
-270
-275
-295
-310
-345
-365
-370
-390
-385
-395
-410
-415
-405
-395
-400
-405
-400
-405
-410
-390
-395
-395
-415
-430
-430
-415
-410
-405
-410
-410
-420
-410
-415
-425
-455
-500
-510
-520
-520
-570
-615
-655
-640
-570
-475
-360
-235
-40
240
515
710
795
720
435
65
-250
-445
-535
-550
-510
-480
-450
-450
-445
-440
-455
-450
-450
-440
-440
-445
-450
-455
-445
-435
-430
-440
-455
-445
-445
-440
-435
-460
-460
-455
-465
-450
-445
-470
-485
-465
-460
-460
-450
-450
-470
-460
-455
-440
-435
-445
-450
-435
-440
-445
-445
-450
-450
-440
-435
-440
-445
-455
-475
-460
-450
-435
-440
-445
-455
-450
-435
-435
-450
-450
-460
-455
-440
-430
-425
-435
-460
-465
-445
-440
-440
-470
-480
-490
-480
-475
-485
-490
-495
-490
-490
-490
-495
-495
-510
-495
-495
-475
-475
-465
-475
-465
-430
-410
-405
-395
-405
-395
-370
-355
-365
-370
-370
-380
-370
-355
-360
-370
-370
-355
-340
-325
-325
-340
-345
-360
-345
-345
-355
-355
-365
-370
-365
-370
-370
-375
-375
-365
-360
-355
-355
-355
-375
-380
-385
-365
-365
-375
-380
-385
-385
-370
-380
-400
-410
-400
-385
-375
-380
-390
-410
-400
-395
-390
-390
-390
-400
-400
-390
-385
-390
-395
-395
-400
-400
-385
-390
-400
-400
-390
-380
-370
-370
-380
-405
-390
-390
-380
-380
-380
-390
-380
-380
-375
-380
-390
-410
-405
-395
-395
-385
-405
-405
-385
-370
-335
-325
-325
-345
-335
-325
-320
-320
-310
-310
-300
-290
-280
-285
-295
-305
-295
-290
-285
-290
-300
-315
-310
-310
-290
-275
-280
-300
-320
-340
-340
-370
-395
-420
-415
-425
-415
-410
-420
-425
-425
-430
-415
-410
-425
-440
-445
-435
-420
-410
-420
-435
-425
-425
-415
-420
-430
-435
-450
-470
-490
-520
-535
-555
-590
-615
-620
-555
-445
-325
-175
25
265
540
735
850
855
680
325
-85
-390
-520
-555
-530
-490
-455
-455
-465
-465
-450
-440
-450
-445
-465
-440
-450
-435
-440
-450
-460
-470
-455
-455
-460
-475
-485
-475
-465
-455
-460
-460
-460
-460
-465
-450
-455
-460
-480
-470
-460
-465
-455
-460
-470
-455
-450
-455
-455
-455
-470
-480
-470
-455
-460
-470
-480
-470
-465
-455
-460
-460
-465
-470
-455
-445
-445
-450
-455
-450
-440
-425
-435
-440
-450
-455
-455
-450
-445
-460
-460
-470
-465
-460
-460
-475
-490
-480
-480
-475
-485
-490
-500
-490
-485
-490
-490
-480
-500
-500
-510
-480
-490
-490
-485
-475
-465
-445
-435
-425
-425
-420
-390
-380
-375
-370
-370
-370
-350
-335
-350
-350
-355
-335
-320
-320
-315
-325
-335
-330
-320
-320
-310
-330
-350
-345
-330
-330
-340
-340
-355
-355
-345
-335
-345
-350
-360
-350
-360
-350
-350
-350
-365
-370
-345
-330
-345
-350
-355
-355
-355
-340
-335
-365
-385
-385
-365
-365
-365
-365
-385
-395
-385
-375
-365
-380
-390
-375
-380
-365
-370
-370
-380
-380
-355
-365
-365
-370
-380
-375
-365
-365
-370
-370
-390
-385
-365
-360
-365
-375
-385
-390
-380
-370
-375
-390
-385
-385
-375
-370
-375
-385
-405
-385
-370
-370
-360
-375
-370
-375
-355
-340
-345
-340
-345
-325
-310
-305
-305
-300
-305
-300
-285
-265
-265
-270
-280
-275
-275
-265
-265
-275
-295
-290
-290
-270
-275
-285
-300
-295
-270
-240
-245
-260
-295
-310
-315
-325
-350
-365
-385
-380
-390
-370
-370
-375
-380
-390
-385
-390
-380
-390
-400
-405
-390
-385
-385
-395
-415
-405
-400
-385
-400
-400
-420
-420
-435
-450
-495
-520
-550
-555
-565
-580
-625
-660
-610
-505
-395
-240
-85
115
385
660
865
955
910
660
270
-140
-425
-520
-515
-490
-465
-445
-430
-435
-435
-450
-455
-450
-450
-440
-445
-455
-460
-460
-450
-450
-445
-450
-465
-455
-440
-435
-435
-440
-460
-455
-435
-440
-455
-450
-460
-460
-450
-445
-440
-455
-465
-455
-445
-440
-435
-445
-455
-440
-425
-430
-430
-445
-450
-430
-435
-425
-430
-435
-450
-450
-450
-435
-450
-440
-455
-445
-440
-435
-450
-455
-455
-440
-440
-420
-420
-430
-445
-445
-425
-425
-420
-420
-440
-435
-430
-425
-435
-445
-460
-455
-445
-435
-435
-450
-455
-455
-445
-435
-450
-455
-445
-455
-440
-430
-415
-425
-430
-410
-395
-380
-365
-365
-370
-370
-350
-340
-335
-345
-355
-345
-340
-330
-340
-335
-355
-340
-335
-320
-325
-335
-355
-330
-325
-325
-325
-325
-350
-335
-325
-320
-325
-335
-335
-340
-325
-325
-330
-335
-345
-355
-340
-345
-340
-355
-360
-365
-360
-355
-355
-365
-370
-365
-365
-355
-355
-360
-370
-370
-370
-360
-365
-365
-385
-385
-385
-375
-380
-390
-400
-400
-385
-385
-385
-390
-400
-405
-390
-380
-380
-390
-405
-395
-390
-385
-380
-380
-390
-375
-365
-365
-375
-375
-385
-385
-385
-365
-375
-380
-390
-385
-375
-360
-370
-380
-390
-390
-375
-365
-375
-360
-370
-355
-320
-310
-300
-300
-310
-310
-285
-270
-255
-275
-275
-270
-275
-270
-280
-295
-310
-305
-295
-285
-285
-295
-315
-315
-310
-300
-290
-295
-285
-265
-265
-290
-305
-325
-355
-365
-375
-380
-385
-385
-405
-400
-385
-385
-395
-400
-420
-410
-405
-400
-405
-410
-425
-420
-420
-400
-405
-415
-430
-430
-435
-455
-495
-540
-560
-590
-630
-630
-565
-445
-325
-190
0
245
520
720
835
855
740
490
125
-190
-425
-535
-585
-585
-550
-505
-480
-460
-450
-440
-440
-435
-450
-450
-450
-445
-435
-450
-455
-460
-465
-435
-445
-450
-450
-460
-455
-445
-445
-465
-470
-450
-455
-425
-430
-430
-455
-440
-435
-425
-435
-435
-445
-450
-440
-440
-435
-440
-440
-445
-425
-420
-415
-425
-445
-450
-435
-425
-430
-450
-450
-440
-450
-425
-435
-445
-450
-445
-440
-425
-430
-450
-450
-445
-430
-430
-435
-435
-445
-445
-430
-425
-430
-445
-435
-430
-430
-425
-420
-425
-440
-440
-435
-435
-435
-440
-455
-455
-435
-425
-430
-430
-440
-430
-430
-420
-420
-430
-425
-415
-385
-375
-365
-365
-370
-355
-365
-350
-340
-345
-345
-350
-355
-345
-335
-335
-345
-345
-340
-330
-335
-355
-360
-360
-355
-345
-340
-345
-350
-355
-340
-340
-340
-350
-375
-360
-355
-340
-345
-360
-385
-375
-365
-360
-365
-385
-395
-395
-380
-380
-375
-380
-400
-395
-375
-375
-385
-395
-400
-410
-390
-385
-380
-390
-415
-410
-400
-395
-385
-400
-420
-425
-415
-410
-410
-430
-430
-430
-420
-420
-415
-420
-420
-415
-415
-400
-390
-400
-410
-415
-405
-400
-400
-410
-420
-420
-410
-400
-415
-420
-430
-425
-410
-395
-380
-375
-370
-355
-345
-335
-335
-335
-335
-310
-300
-305
-295
-290
-300
-300
-295
-295
-305
-315
-330
-325
-325
-320
-315
-330
-355
-345
-320
-295
-305
-325
-375
-380
-385
-395
-405
-420
-435
-430
-420
-405
-400
-415
-435
-440
-450
-430
-440
-445
-450
-455
-450
-435
-440
-450
-460
-445
-440
-435
-430
-435
-460
-490
-510
-525
-550
-595
-645
-645
-555
-435
-305
-135
105
400
655
795
790
600
230
-145
-400
-520
-560
-550
-505
-465
-460
-455
-455
-450
-465
-460
-465
-470
-470
-470
-490
-485
-470
-465
-460
-465
-470
-480
-475
-465
-455
-475
-480
-460
-450
-440
-445
-445
-460
-455
-455
-465
-455
-480
-465
-465
-455
-455
-460
-475
-480
-470
-465
-455
-465
-450
-455
-450
-435
-430
-440
-445
-455
-455
-450
-440
-435
-455
-465
-455
-440
-440
-440
-440
-460
-455
-450
-430
-435
-455
-475
-475
-470
-460
-470
-465
-485
-490
-465
-460
-460
-475
-490
-500
-495
-485
-470
-485
-500
-500
-490
-475
-475
-465
-480
-455
-445
-425
-410
-405
-420
-420
-400
-375
-360
-360
-375
-360
-345
-325
-325
-340
-345
-360
-355
-355
-355
-365
-360
-355
-330
-335
-350
-345
-360
-355
-370
-340
-335
-335
-345
-350
-350
-340
-345
-360
-365
-360
-350
-350
-350
-365
-380
-375
-370
-370
-365
-365
-375
-380
-375
-370
-375
-390
-410
-400
-390
-365
-370
-375
-390
-385
-375
-365
-375
-395
-405
-405
-395
-390
-400
-400
-400
-405
-405
-390
-390
-395
-400
-410
-400
-385
-375
-395
-395
-395
-385
-380
-385
-380
-380
-380
-370
-380
-370
-380
-385
-400
-375
-365
-345
-355
-350
-350
-330
-315
-310
-305
-315
-315
-300
-275
-280
-285
-290
-285
-270
-270
-275
-275
-285
-290
-295
-285
-285
-285
-300
-300
-295
-290
-270
-270
-285
-300
-315
-320
-330
-360
-390
-395
-415
-395
-400
-395
-405
-415
-400
-405
-400
-405
-405
-410
-405
-400
-410
-420
-430
-425
-420
-405
-420
-415
-435
-445
-470
-500
-520
-545
-595
-625
-590
-490
-340
-195
-15
245
520
745
885
880
680
325
-80
-355
-500
-550
-535
-485
-455
-440
-445
-440
-445
-440
-430
-425
-415
-435
-450
-445
-430
-425
-430
-440
-460
-455
-460
-455
-440
-450
-455
-460
-450
-435
-430
-440
-460
-460
-450
-440
-435
-435
-440
-440
-425
-425
-430
-435
-445
-445
-440
-435
-455
-440
-455
-445
-450
-440
-440
-445
-450
-445
-435
-430
-425
-430
-440
-435
-425
-430
-415
-435
-450
-440
-430
-425
-420
-435
-445
-440
-435
-430
-440
-455
-460
-470
-455
-455
-465
-470
-485
-485
-475
-475
-475
-470
-480
-475
-475
-460
-465
-470
-465
-465
-450
-445
-430
-435
-435
-425
-400
-380
-365
-365
-390
-365
-365
-340
-345
-330
-350
-335
-320
-325
-320
-315
-335
-330
-320
-315
-310
-315
-325
-330
-315
-320
-320
-320
-335
-345
-330
-330
-325
-335
-345
-335
-325
-325
-335
-335
-345
-345
-345
-330
-325
-340
-335
-335
-325
-315
-315
-335
-340
-340
-330
-340
-325
-335
-355
-350
-340
-335
-340
-340
-360
-365
-355
-350
-345
-345
-355
-375
-345
-340
-355
-350
-365
-350
-355
-340
-350
-350
-350
-355
-330
-335
-335
-340
-360
-350
-340
-335
-345
-345
-360
-360
-355
-345
-350
-375
-385
-360
-355
-340
-345
-350
-365
-360
-345
-340
-340
-340
-345
-335
-325
-290
-280
-285
-295
-290
-275
-275
-260
-250
-260
-245
-230
-230
-240
-240
-250
-265
-250
-245
-235
-250
-280
-270
-240
-220
-210
-235
-285
-290
-315
-310
-310
-340
-360
-345
-345
-340
-365
-355
-380
-365
-355
-360
-355
-360
-375
-380
-370
-365
-360
-360
-375
-375
-375
-355
-365
-365
-390
-415
-430
-470
-500
-525
-580
-600
-560
-445
-305
-160
-5
230
535
795
985
1050
975
715
270
-145
-410
-520
-500
-435
-390
-390
-400
-410
-420
-415
-405
-410
-415
-420
-435
-435
-425
-420
-425
-430
-435
-430
-425
-410
-415
-420
-430
-435
-430
-425
-430
-440
-440
-440
-430
-420
-425
-425
-435
-430
-435
-430
-425
-430
-435
-425
-420
-420
-420
-420
-440
-435
-430
-425
-435
-440
-445
-435
-435
-425
-425
-435
-445
-435
-445
-420
-425
-430
-440
-435
-420
-420
-420
-415
-430
-430
-430
-415
-425
-435
-450
-445
-440
-435
-440
-435
-445
-440
-440
-425
-425
-425
-430
-435
-410
-395
-395
-390
-385
-390
-380
-355
-340
-350
-345
-340
-320
-310
-300
-305
-330
-325
-320
-320
-305
-325
-325
-315
-320
-315
-315
-320
-330
-325
-320
-315
-310
-315
-330
-320
-330
-320
-320
-340
-350
-345
-335
-335
-340
-335
-345
-360
-345
-335
-345
-355
-370
-360
-355
-345
-355
-355
-365
-355
-355
-350
-355
-360
-380
-370
-365
-360
-365
-380
-380
-385
-370
-365
-360
-365
-375
-375
-370
-360
-355
-365
-370
-370
-360
-355
-350
-355
-375
-355
-355
-340
-340
-355
-365
-365
-350
-350
-350
-355
-365
-370
-350
-345
-345
-350
-360
-350
-325
-320
-295
-295
-310
-285
-280
-265
-250
-260
-265
-255
-240
-225
-230
-245
-265
-265
-265
-270
-255
-260
-275
-285
-275
-260
-225
-230
-250
-285
-300
-285
-300
-325
-345
-345
-335
-325
-320
-330
-350
-355
-360
-355
-360
-365
-375
-380
-375
-370
-370
-370
-395
-395
-385
-390
-390
-380
-390
-380
-385
-370
-380
-400
-425
-460
-500
-505
-540
-595
-615
-535
-390
-225
-25
235
510
745
850
760
450
20
-350
-530
-525
-460
-415
-395
-415
-415
-410
-390
-385
-400
-425
-425
-415
-415
-405
-425
-425
-420
-420
-420
-410
-420
-425
-425
-410
-400
-395
-400
-410
-415
-405
-395
-385
-405
-410
-400
-405
-390
-390
-390
-400
-405
-395
-400
-400
-400
-420
-415
-400
-395
-400
-410
-410
-400
-400
-385
-395
-405
-415
-410
-405
-385
-390
-395
-405
-390
-385
-390
-395
-410
-415
-420
-405
-395
-400
-415
-430
-430
-420
-410
-420
-435
-425
-430
-425
-415
-415
-425
-425
-420
-405
-395
-400
-405
-425
-410
-395
-390
-385
-380
-375
-370
-355
-350
-345
-350
-360
-350
-330
-330
-315
-340
-355
-345
-330
-325
-325
-325
-345
-340
-325
-325
-325
-340
-365
-350
-350
-355
-365
-380
-380
-375
-360
-350
-355
-375
-380
-365
-375
-360
-365
-370
-370
-375
-365
-360
-360
-375
-370
-380
-380
-380
-375
-405
-400
-395
-385
-370
-380
-385
-405
-405
-395
-400
-405
-410
-405
-405
-400
-390
-385
-395
-410
-415
-400
-400
-390
-395
-415
-400
-400
-400
-400
-400
-420
-410
-415
-405
-385
-390
-395
-390
-375
-375
-380
-390
-395
-380
-380
-345
-335
-345
-335
-345
-325
-320
-320
-335
-345
-330
-310
-310
-300
-310
-315
-300
-290
-290
-305
-305
-310
-315
-305
-300
-320
-320
-315
-300
-285
-295
-330
-345
-380
-395
-400
-395
-420
-435
-445
-445
-440
-430
-425
-435
-445
-435
-425
-415
-425
-440
-445
-450
-435
-430
-425
-425
-445
-450
-445
-440
-470
-505
-545
-570
-595
-645
-670
-640
-570
-470
-370
-290
-190
-70
85
300
515
700
820
840
690
335
-40
-335
-520
-590
-580
-530
-490
-475
-470
-485
-490
-480
-475
-470
-475
-480
-500
-505
-505
-485
-475
-485
-500
-500
-485
-470
-485
-495
-495
-495
-480
-480
-460
-460
-470
-475
-480
-475
-490
-490
-505
-500
-485
-480
-485
-480
-500
-495
-480
-475
-475
-470
-490
-475
-480
-470
-485
-480
-490
-485
-490
-490
-495
-500
-515
-515
-495
-485
-465
-475
-490
-495
-500
-495
-500
-510
-505
-510
-500
-505
-510
-525
-545
-540
-530
-530
-535
-550
-560
-545
-540
-535
-530
-540
-545
-550
-530
-525
-515
-500
-510
-490
-465
-455
-440
-440
-450
-425
-410
-400
-405
-410
-405
-400
-385
-385
-380
-390
-405
-400
-385
-380
-380
-380
-400
-395
-380
-365
-360
-385
-400
-400
-395
-380
-385
-390
-395
-395
-390
-380
-385
-395
-405
-400
-405
-395
-405
-405
-420
-410
-405
-400
-405
-420
-435
-425
-425
-410
-420
-425
-430
-430
-425
-400
-415
-425
-430
-435
-420
-415
-420
-425
-430
-435
-425
-425
-430
-435
-445
-445
-435
-425
-425
-440
-445
-440
-430
-425
-415
-435
-440
-435
-425
-420
-415
-435
-430
-435
-420
-415
-425
-425
-430
-435
-420
-420
-415
-420
-435
-430
-415
-390
-380
-385
-385
-375
-380
-350
-335
-335
-330
-335
-320
-305
-290
-300
-325
-325
-325
-320
-335
-330
-345
-345
-340
-345
-335
-325
-325
-320
-340
-345
-360
-380
-410
-420
-415
-410
-415
-430
-435
-435
-435
-435
-430
-435
-450
-460
-450
-435
-440
-445
-455
-455
-450
-450
-445
-445
-470
-465
-455
-445
-450
-445
-460
-470
-490
-520
-540
-565
-610
-640
-640
-565
-445
-315
-160
60
340
600
785
850
740
455
80
-260
-485
-570
-580
-555
-505
-495
-475
-485
-485
-490
-485
-470
-475
-490
-495
-500
-505
-490
-495
-500
-495
-495
-495
-475
-475
-490
-495
-490
-480
-480
-480
-490
-500
-500
-480
-475
-485
-480
-505
-485
-480
-465
-480
-490
-495
-490
-485
-485
-475
-490
-495
-500
-490
-480
-485
-495
-500
-485
-485
-475
-480
-485
-495
-500
-490
-485
-485
-495
-500
-495
-485
-475
-470
-485
-490
-480
-500
-485
-475
-490
-505
-495
-500
-495
-500
-520
-530
-525
-515
-505
-515
-515
-530
-525
-510
-505
-505
-505
-530
-520
-515
-490
-490
-495
-505
-490
-460
-445
-430
-430
-430
-405
-410
-390
-400
-395
-400
-390
-385
-375
-375
-380
-375
-375
-365
-365
-365
-365
-390
-375
-370
-365
-365
-370
-390
-380
-365
-365
-370
-390
-390
-390
-380
-370
-380
-385
-400
-395
-390
-385
-390
-395
-405
-410
-395
-390
-400
-405
-395
-405
-390
-380
-380
-385
-395
-395
-395
-395
-390
-400
-405
-400
-400
-395
-395
-400
-420
-405
-415
-390
-405
-405
-415
-415
-405
-395
-395
-405
-420
-410
-400
-385
-385
-395
-415
-410
-400
-385
-390
-390
-410
-410
-395
-405
-395
-410
-415
-410
-405
-400
-395
-400
-415
-410
-395
-390
-395
-385
-380
-365
-345
-320
-315
-315
-340
-340
-315
-310
-310
-320
-315
-315
-295
-290
-290
-285
-305
-305
-300
-300
-310
-325
-335
-325
-320
-310
-315
-315
-310
-280
-270
-285
-315
-340
-365
-365
-375
-385
-390
-425
-435
-425
-415
-410
-405
-415
-430
-430
-420
-415
-410
-415
-440
-430
-415
-410
-420
-425
-435
-430
-435
-425
-440
-465
-515
-550
-555
-570
-605
-640
-650
-595
-470
-325
-180
-5
230
515
755
885
930
835
565
160
-200
-415
-535
-560
-560
-520
-485
-445
-435
-440
-445
-455
-455
-450
-455
-470
-485
-485
-480
-475
-480
-480
-490
-490
-490
-480
-470
-480
-495
-490
-480
-460
-460
-455
-480
-480
-460
-455
-455
-460
-490
-475
-475
-465
-450
-465
-475
-470
-465
-455
-450
-455
-470
-475
-455
-445
-445
-450
-470
-465
-455
-450
-445
-460
-475
-475
-465
-450
-450
-475
-470
-470
-470
-460
-450
-470
-470
-475
-465
-450
-445
-465
-470
-470
-455
-465
-450
-460
-465
-475
-460
-455
-460
-470
-480
-480
-475
-465
-465
-475
-475
-485
-470
-455
-460
-465
-470
-475
-450
-440
-430
-430
-435
-420
-395
-385
-375
-370
-370
-365
-355
-340
-350
-360
-375
-360
-350
-345
-345
-360
-365
-365
-355
-355
-355
-360
-375
-365
-365
-355
-350
-360
-360
-355
-355
-335
-345
-350
-370
-370
-370
-360
-365
-380
-385
-385
-365
-365
-360
-365
-380
-380
-370
-355
-355
-365
-370
-375
-365
-350
-355
-380
-385
-380
-365
-370
-380
-375
-400
-390
-390
-375
-375
-390
-400
-405
-395
-395
-395
-400
-400
-405
-390
-375
-375
-390
-395
-385
-385
-385
-380
-380
-400
-390
-390
-375
-380
-390
-400
-390
-390
-385
-385
-390
-395
-390
-390
-375
-380
-375
-385
-385
-380
-375
-370
-380
-375
-380
-365
-345
-340
-350
-345
-325
-315
-315
-305
-315
-315
-305
-290
-280
-270
-270
-285
-280
-280
-275
-275
-290
-300
-290
-285
-275
-275
-290
-285
-265
-250
-260
-290
-315
-340
-370
-375
-370
-370
-390
-400
-400
-390
-385
-390
-405
-415
-405
-405
-400
-385
-395
-415
-410
-400
-395
-405
-420
-420
-425
-415
-410
-415
-440
-485
-520
-540
-550
-580
-630
-680
-695
-670
-645
-595
-525
-465
-390
-330
-225
-50
185
440
670
810
825
660
355
-35
-350
-500
-530
-505
-470
-455
-450
-450
-435
-430
-440
-450
-455
-455
-440
-435
-440
-450
-450
-440
-425
-425
-425
-455
-455
-430
-425
-440
-440
-450
-445
-435
-425
-420
-430
-435
-430
-435
-430
-430
-445
-450
-450
-435
-430
-425
-425
-435
-435
-415
-420
-430
-435
-445
-445
-440
-440
-440
-440
-440
-450
-435
-430
-425
-420
-440
-445
-420
-420
-420
-425
-435
-425
-410
-410
-420
-430
-440
-435
-445
-415
-430
-420
-435
-435
-430
-425
-425
-430
-445
-440
-440
-425
-440
-445
-460
-460
-445
-445
-435
-445
-455
-460
-435
-430
-435
-440
-445
-440
-415
-410
-390
-395
-395
-395
-380
-360
-365
-375
-390
-385
-355
-345
-345
-340
-360
-360
-360
-335
-340
-345
-360
-360
-355
-350
-350
-365
-370
-380
-375
-355
-360
-365
-370
-365
-355
-345
-350
-355
-375
-380
-365
-350
-355
-365
-375
-370
-365
-370
-370
-375
-385
-390
-380
-380
-375
-380
-390
-395
-390
-380
-375
-385
-405
-390
-395
-375
-390
-390
-410
-405
-400
-385
-390
-405
-405
-400
-395
-380
-380
-385
-390
-390
-385
-380
-395
-400
-405
-415
-395
-390
-390
-375
-390
-390
-380
-380
-385
-390
-410
-400
-390
-380
-385
-390
-380
-360
-350
-325
-330
-330
-330
-345
-310
-295
-285
-280
-280
-275
-265
-275
-270
-275
-300
-295
-285
-295
-300
-325
-325
-305
-285
-285
-310
-340
-370
-380
-390
-380
-380
-385
-410
-405
-395
-390
-390
-410
-430
-415
-420
-405
-405
-405
-405
-410
-405
-410
-415
-425
-425
-415
-415
-405
-405
-410
-425
-435
-445
-485
-520
-545
-580
-615
-605
-525
-380
-230
-50
205
500
730
835
755
480
75
-275
-470
-545
-545
-505
-470
-455
-440
-440
-445
-445
-450
-445
-450
-440
-450
-460
-465
-445
-445
-450
-455
-465
-470
-460
-450
-455
-455
-465
-460
-440
-435
-440
-450
-455
-450
-445
-445
-445
-455
-455
-445
-440
-440
-455
-475
-465
-465
-455
-440
-440
-445
-445
-440
-440
-435
-440
-455
-465
-470
-475
-450
-445
-440
-450
-460
-450
-435
-435
-455
-460
-465
-460
-450
-455
-455
-465
-455
-455
-445
-465
-470
-480
-485
-490
-485
-480
-495
-515
-515
-505
-485
-480
-495
-505
-495
-495
-475
-460
-465
-465
-445
-430
-410
-415
-410
-410
-405
-380
-365
-365
-370
-370
-360
-355
-345
-345
-330
-345
-345
-335
-340
-335
-330
-345
-340
-335
-320
-330
-335
-350
-345
-330
-320
-330
-340
-345
-350
-335
-325
-340
-345
-360
-370
-340
-330
-340
-340
-355
-350
-360
-340
-335
-350
-360
-370
-360
-355
-350
-365
-375
-360
-370
-360
-360
-370
-380
-380
-370
-350
-350
-355
-360
-350
-350
-340
-345
-355
-365
-365
-360
-350
-360
-365
-375
-380
-375
-360
-355
-370
-380
-365
-350
-355
-355
-355
-370
-360
-350
-335
-345
-350
-355
-345
-325
-310
-310
-305
-305
-305
-285
-275
-265
-265
-260
-245
-240
-225
-240
-235
-245
-260
-240
-230
-245
-255
-250
-255
-260
-260
-240
-240
-245
-250
-270
-285
-305
-330
-345
-345
-355
-355
-360
-365
-365
-370
-350
-350
-355
-365
-375
-375
-360
-355
-355
-360
-380
-385
-375
-370
-385
-410
-445
-490
-505
-525
-580
-595
-545
-410
-260
-85
120
390
635
845
930
860
575
160
-215
-455
-530
-540
-535
-550
-535
-510
-460
-410
-410
-425
-430
-430
-425
-410
-410
-425
-430
-425
-420
-405
-410
-410
-410
-420
-405
-395
-395
-410
-415
-420
-410
-400
-410
-420
-420
-425
-415
-415
-405
-415
-420
-430
-425
-405
-410
-410
-420
-415
-400
-385
-395
-395
-405
-405
-400
-390
-395
-405
-420
-420
-405
-390
-400
-410
-420
-425
-410
-400
-395
-405
-410
-420
-400
-405
-405
-410
-425
-415
-415
-400
-405
-415
-430
-420
-410
-420
-425
-420
-440
-430
-435
-430
-430
-435
-440
-430
-420
-410
-410
-395
-385
-380
-360
-340
-330
-335
-335
-330
-320
-320
-320
-320
-310
-315
-300
-295
-295
-305
-305
-305
-295
-285
-300
-295
-295
-300
-290
-280
-295
-305
-310
-320
-300
-300
-310
-305
-320
-325
-325
-315
-305
-315
-320
-330
-325
-305
-325
-320
-325
-335
-315
-320
-320
-330
-340
-345
-345
-325
-325
-345
-350
-350
-345
-325
-330
-340
-340
-335
-335
-320
-325
-320
-340
-335
-330
-340
-335
-340
-345
-355
-340
-330
-340
-340
-345
-350
-335
-345
-335
-340
-335
-345
-330
-320
-325
-320
-335
-350
-340
-325
-320
-335
-345
-330
-330
-305
-305
-285
-285
-275
-280
-265
-260
-255
-250
-245
-225
-210
-190
-220
-220
-230
-230
-220
-235
-245
-260
-250
-240
-230
-230
-245
-270
-285
-255
-230
-215
-210
-225
-260
-285
-280
-305
-315
-335
-345
-335
-335
-340
-340
-355
-355
-355
-345
-365
-385
-380
-385
-375
-365
-370
-375
-380
-380
-375
-370
-375
-390
-425
-455
-485
-485
-520
-555
-585
-530
-385
-235
-95
115
365
635
840
925
860
595
195
-220
-445
-505
-480
-435
-415
-405
-390
-390
-395
-400
-410
-415
-400
-395
-405
-405
-405
-405
-395
-380
-390
-405
-405
-410
-405
-395
-395
-405
-410
-405
-405
-390
-400
-405
-420
-425
-405
-400
-395
-395
-400
-400
-400
-385
-390
-395
-395
-400
-385
-385
-395
-395
-400
-400
-395
-390
-395
-400
-410
-410
-405
-390
-385
-395
-405
-410
-400
-380
-385
-390
-395
-395
-385
-385
-390
-400
-395
-400
-390
-385
-395
-405
-405
-420
-410
-395
-405
-410
-425
-420
-425
-400
-405
-405
-395
-405
-395
-385
-395
-400
-395
-395
-380
-365
-375
-370
-370
-375
-355
-330
-335
-345
-350
-335
-320
-305
-310
-315
-320
-320
-310
-305
-310
-295
-305
-300
-290
-285
-290
-295
-300
-305
-310
-310
-305
-300
-315
-330
-320
-305
-310
-320
-315
-340
-320
-315
-325
-330
-330
-335
-315
-315
-310
-320
-320
-320
-330
-320
-320
-330
-340
-330
-335
-335
-330
-340
-345
-350
-345
-330
-335
-345
-350
-350
-350
-335
-340
-340
-360
-355
-360
-345
-340
-350
-355
-350
-345
-335
-330
-345
-350
-355
-350
-335
-335
-335
-345
-355
-355
-350
-335
-340
-350
-360
-345
-325
-335
-345
-350
-340
-325
-305
-290
-265
-255
-275
-260
-250
-265
-265
-255
-250
-250
-225
-225
-240
-250
-250
-250
-245
-245
-250
-245
-255
-250
-245
-265
-265
-275
-275
-245
-210
-205
-235
-275
-300
-290
-300
-330
-345
-350
-365
-355
-340
-350
-360
-375
-370
-370
-360
-365
-375
-380
-385
-360
-360
-360
-360
-380
-390
-395
-375
-405
-450
-490
-520
-545
-570
-600
-565
-480
-335
-170
40
315
570
730
770
655
380
0
-310
-485
-520
-475
-420
-410
-425
-425
-430
-430
-410
-420
-440
-435
-445
-440
-425
-415
-425
-440
-455
-450
-430
-425
-430
-445
-440
-430
-415
-415
-430
-440
-445
-435
-415
-420
-440
-435
-445
-425
-420
-430
-430
-440
-435
-435
-425
-430
-440
-440
-445
-440
-425
-430
-430
-435
-435
-435
-430
-435
-435
-430
-425
-420
-405
-420
-430
-435
-445
-425
-410
-420
-435
-440
-445
-435
-430
-430
-440
-460
-475
-450
-440
-440
-440
-475
-460
-450
-440
-440
-450
-460
-470
-465
-450
-450
-465
-455
-460
-450
-435
-435
-430
-435
-430
-405
-405
-385
-385
-385
-390
-380
-370
-375
-370
-360
-365
-360
-345
-360
-350
-350
-355
-350
-350
-340
-355
-375
-380
-365
-350
-360
-370
-370
-380
-385
-370
-375
-390
-400
-395
-385
-360
-365
-375
-375
-385
-380
-385
-385
-390
-395
-400
-390
-380
-375
-385
-395
-415
-405
-390
-390
-405
-410
-415
-405
-400
-410
-390
-400
-405
-395
-395
-400
-405
-410
-410
-395
-395
-395
-400
-415
-415
-405
-390
-390
-400
-395
-405
-395
-395
-400
-415
-420
-430
-420
-415
-410
-410
-415
-405
-390
-375
-385
-390
-390
-390
-385
-380
-365
-370
-370
-370
-345
-335
-340
-340
-340
-335
-320
-305
-305
-300
-310
-325
-315
-310
-320
-325
-315
-320
-325
-320
-325
-330
-320
-305
-305
-320
-360
-395
-390
-415
-410
-405
-420
-435
-445
-455
-435
-425
-420
-435
-430
-455
-445
-430
-430
-435
-455
-450
-440
-430
-415
-445
-465
-450
-445
-450
-495
-535
-555
-575
-605
-640
-630
-575
-460
-325
-150
85
350
585
735
770
630
340
-45
-360
-520
-570
-555
-510
-495
-490
-500
-490
-475
-480
-470
-480
-485
-480
-485
-470
-475
-470
-480
-485
-460
-455
-470
-470
-475
-485
-465
-455
-450
-460
-460
-465
-470
-460
-470
-485
-505
-500
-485
-480
-485
-480
-480
-485
-475
-465
-465
-470
-470
-475
-470
-470
-475
-475
-490
-480
-485
-475
-475
-490
-495
-495
-485
-480
-470
-490
-490
-490
-485
-470
-475
-485
-485
-500
-480
-475
-475
-480
-500
-505
-495
-485
-490
-520
-525
-530
-525
-515
-520
-540
-535
-540
-535
-525
-530
-530
-520
-510
-500
-475
-480
-475
-475
-465
-450
-440
-430
-420
-420
-425
-400
-385
-385
-385
-390
-375
-375
-370
-360
-370
-375
-370
-355
-345
-350
-350
-365
-365
-360
-355
-360
-370
-375
-375
-375
-360
-370
-380
-400
-400
-390
-380
-380
-375
-385
-385
-375
-365
-360
-370
-390
-385
-380
-375
-370
-390
-400
-405
-395
-380
-385
-390
-395
-405
-390
-390
-405
-400
-400
-405
-400
-395
-395
-405
-415
-410
-410
-400
-400
-400
-415
-410
-400
-385
-395
-400
-415
-405
-400
-385
-385
-390
-395
-400
-390
-385
-385
-395
-400
-400
-395
-400
-400
-410
-405
-405
-390
-390
-385
-385
-400
-380
-380
-345
-340
-330
-325
-320
-315
-310
-310
-310
-315
-305
-275
-280
-275
-270
-285
-295
-295
-285
-290
-310
-320
-310
-300
-285
-300
-315
-310
-290
-275
-260
-280
-320
-330
-350
-350
-355
-375
-385
-400
-430
-415
-395
-385
-405
-415
-410
-410
-400
-400
-410
-405
-415
-400
-395
-400
-405
-410
-405
-395
-395
-400
-405
-410
-420
-420
-415
-480
-520
-540
-545
-550
-595
-615
-590
-490
-345
-190
10
250
515
725
850
875
690
320
-110
-405
-530
-515
-455
-430
-420
-420
-440
-430
-430
-425
-430
-445
-450
-440
-420
-425
-435
-430
-445
-430
-415
-425
-420
-440
-445
-430
-420
-420
-425
-430
-445
-420
-405
-420
-430
-440
-445
-430
-415
-430
-440
-440
-440
-430
-430
-420
-430
-440
-450
-440
-420
-425
-420
-430
-440
-425
-420
-400
-410
-420
-430
-420
-405
-410
-430
-440
-435
-420
-415
-430
-430
-435
-435
-435
-425
-435
-435
-440
-440
-435
-425
-425
-445
-440
-455
-445
-440
-440
-450
-435
-445
-435
-430
-430
-430
-440
-440
-430
-420
-415
-415
-410
-405
-385
-370
-365
-365
-365
-350
-345
-325
-325
-325
-340
-335
-315
-300
-300
-315
-300
-305
-305
-295
-310
-310
-315
-325
-315
-300
-310
-305
-320
-320
-310
-310
-310
-310
-320
-325
-320
-300
-290
-310
-320
-325
-300
-300
-300
-305
-325
-335
-325
-310
-325
-330
-330
-340
-330
-315
-320
-330
-340
-340
-335
-325
-320
-335
-335
-340
-340
-325
-335
-340
-350
-360
-355
-335
-335
-355
-355
-360
-350
-350
-345
-350
-360
-350
-340
-335
-340
-340
-345
-350
-345
-325
-325
-315
-340
-340
-325
-330
-330
-335
-335
-345
-340
-330
-330
-345
-350
-340
-315
-305
-285
-285
-280
-285
-270
-245
-255
-280
-285
-290
-270
-255
-245
-240
-260
-250
-235
-230
-225
-245
-245
-255
-250
-255
-240
-250
-255
-275
-255
-240
-225
-220
-230
-260
-285
-290
-295
-320
-345
-350
-345
-340
-345
-365
-370
-375
-365
-365
-365
-360
-370
-375
-375
-375
-365
-375
-375
-385
-370
-360
-355
-370
-375
-400
-420
-445
-480
-505
-540
-575
-595
-585
-520
-405
-285
-145
50
315
585
770
850
815
600
280
-100
-370
-495
-500
-455
-405
-390
-400
-410
-410
-390
-375
-385
-395
-415
-410
-400
-395
-385
-390
-405
-410
-390
-395
-390
-400
-425
-410
-395
-390
-400
-400
-405
-410
-395
-395
-390
-405
-400
-395
-395
-385
-390
-395
-405
-400
-385
-375
-385
-390
-405
-400
-390
-400
-405
-410
-400
-415
-405
-390
-385
-400
-410
-410
-390
-380
-370
-385
-395
-390
-375
-385
-390
-390
-395
-410
-395
-380
-400
-400
-400
-410
-410
-400
-410
-400
-415
-425
-415
-400
-405
-405
-415
-420
-405
-395
-390
-400
-415
-400
-390
-380
-375
-385
-380
-385
-365
-360
-345
-345
-345
-340
-330
-310
-310
-315
-325
-320
-305
-295
-295
-295
-300
-310
-295
-285
-285
-295
-310
-305
-305
-295
-290
-290
-305
-305
-295
-290
-305
-310
-320
-325
-320
-300
-315
-315
-325
-325
-320
-310
-315
-330
-340
-335
-325
-315
-320
-325
-330
-340
-325
-310
-315
-325
-330
-335
-345
-335
-335
-340
-345
-345
-345
-335
-335
-340
-355
-345
-350
-335
-330
-335
-340
-350
-335
-330
-335
-340
-345
-355
-345
-330
-335
-340
-350
-360
-355
-345
-340
-350
-345
-355
-345
-330
-325
-335
-335
-345
-330
-325
-325
-330
-330
-310
-290
-270
-265
-280
-300
-295
-270
-240
-235
-235
-235
-235
-230
-215
-220
-230
-230
-255
-245
-235
-240
-245
-270
-275
-270
-260
-245
-230
-225
-225
-200
-200
-230
-265
-295
-305
-310
-310
-320
-340
-345
-360
-355
-340
-340
-350
-360
-360
-365
-360
-375
-380
-385
-380
-375
-370
-375
-370
-375
-385
-365
-370
-385
-400
-440
-460
-475
-475
-520
-580
-605
-545
-445
-315
-180
0
235
495
695
790
760
560
245
-110
-360
-475
-510
-490
-465
-440
-435
-415
-425
-415
-425
-435
-395
-385
-385
-400
-410
-420
-410
-405
-410
-400
-420
-435
-420
-405
-405
-415
-415
-420
-420
-400
-410
-415
-425
-430
-415
-415
-410
-415
-420
-420
-415
-395
-400
-405
-415
-415
-420
-415
-425
-425
-435
-435
-425
-415
-415
-420
-425
-430
-420
-410
-410
-410
-415
-425
-405
-400
-400
-410
-415
-415
-405
-395
-385
-395
-395
-415
-395
-390
-395
-405
-415
-425
-415
-415
-415
-425
-435
-445
-445
-445
-445
-440
-450
-435
-430
-425
-435
-445
-445
-430
-425
-420
-425
-415
-415
-410
-405
-375
-370
-365
-365
-360
-345
-340
-330
-335
-335
-330
-330
-315
-315
-315
-315
-325
-320
-320
-300
-320
-330
-335
-320
-305
-315
-325
-335
-340
-340
-320
-335
-335
-345
-350
-330
-330
-330
-335
-335
-345
-345
-325
-345
-330
-340
-345
-340
-350
-340
-340
-350
-370
-355
-340
-345
-350
-365
-370
-370
-355
-360
-355
-360
-375
-370
-355
-345
-355
-365
-360
-360
-360
-365
-375
-380
-370
-360
-340
-330
-340
-340
-365
-355
-350
-360
-370
-375
-370
-365
-360
-355
-360
-355
-370
-355
-340
-345
-355
-360
-365
-355
-330
-330
-320
-305
-300
-275
-270
-285
-295
-285
-270
-260
-250
-245
-245
-255
-265
-250
-245
-265
-265
-275
-290
-285
-285
-285
-290
-280
-275
-285
-285
-300
-330
-350
-375
-360
-350
-355
-360
-375
-365
-360
-365
-380
-380
-390
-400
-390
-380
-380
-380
-400
-400
-390
-380
-380
-380
-390
-390
-385
-375
-395
-430
-470
-490
-505
-535
-580
-590
-515
-385
-225
-60
155
415
635
775
820
710
375
-10
-300
-460
-510
-495
-455
-425
-410
-430
-410
-395
-390
-400
-410
-425
-415
-410
-410
-415
-420
-425
-415
-410
-410
-410
-415
-430
-430
-425
-420
-425
-430
-435
-425
-425
-425
-435
-440
-435
-425
-420
-420
-415
-425
-430
-420
-415
-430
-420
-435
-435
-425
-425
-430
-430
-450
-440
-430
-405
-420
-435
-430
-435
-435
-420
-425
-435
-425
-420
-415
-410
-410
-430
-430
-440
-435
-425
-430
-455
-455
-470
-465
-465
-465
-470
-490
-485
-470
-465
-465
-465
-475
-475
-460
-465
-465
-475
-465
-475
-465
-450
-440
-435
-430
-415
-395
-390
-385
-365
-365
-360
-335
-325
-330
-345
-330
-325
-320
-310
-315
-320
-320
-335
-320
-315
-310
-320
-315
-320
-325
-320
-320
-325
-330
-335
-330
-305
-315
-330
-335
-340
-350
-330
-325
-325
-350
-350
-345
-330
-320
-345
-340
-350
-340
-325
-330
-340
-350
-360
-355
-345
-350
-355
-360
-370
-360
-340
-345
-355
-355
-355
-350
-340
-345
-355
-355
-355
-365
-355
-355
-360
-375
-365
-355
-350
-350
-355
-365
-370
-360
-355
-355
-355
-360
-360
-360
-335
-335
-355
-360
-365
-345
-335
-345
-360
-360
-360
-345
-305
-295
-285
-285
-285
-275
-265
-260
-240
-245
-255
-230
-230
-245
-255
-260
-255
-260
-255
-255
-265
-270
-280
-285
-275
-245
-235
-235
-270
-290
-290
-310
-330
-350
-355
-355
-355
-360
-370
-385
-385
-370
-370
-370
-375
-385
-395
-370
-360
-365
-370
-375
-375
-370
-365
-370
-405
-455
-500
-510
-520
-570
-595
-555
-445
-275
-105
100
360
630
830
985
1020
905
655
370
105
-80
-220
-340
-435
-510
-570
-580
-520
-460
-415
-415
-425
-415
-405
-415
-420
-435
-435
-430
-420
-425
-425
-435
-435
-415
-405
-410
-415
-410
-410
-415
-400
-405
-420
-430
-435
-420
-405
-425
-430
-430
-425
-415
-410
-405
-420
-425
-430
-415
-405
-405
-410
-420
-425
-410
-400
-415
-400
-410
-410
-400
-390
-390
-405
-410
-425
-415
-405
-400
-410
-425
-420
-415
-405
-410
-400
-420
-415
-425
-405
-420
-425
-430
-440
-415
-420
-425
-420
-440
-425
-425
-425
-425
-430
-435
-445
-425
-415
-415
-415
-410
-400
-395
-370
-360
-360
-345
-345
-345
-330
-315
-325
-330
-335
-320
-305
-305
-310
-325
-330
-315
-320
-310
-320
-315
-325
-320
-310
-310
-315
-315
-325
-310
-305
-310
-320
-325
-325
-320
-315
-325
-325
-340
-340
-335
-335
-330
-340
-350
-345
-340
-335
-330
-335
-345
-345
-345
-335
-340
-345
-355
-350
-350
-340
-345
-360
-365
-370
-355
-355
-360
-365
-370
-375
-355
-350
-360
-365
-365
-365
-350
-345
-350
-345
-365
-360
-360
-355
-365
-360
-360
-365
-365
-350
-345
-355
-355
-360
-350
-335
-340
-335
-335
-335
-310
-290
-270
-280
-295
-295
-285
-270
-260
-255
-255
-260
-250
-255
-245
-240
-250
-260
-260
-255
-260
-265
-270
-275
-265
-260
-250
-240
-230
-265
-285
-295
-335
-330
-350
-370
-360
-355
-360
-365
-375
-380
-360
-360
-365
-365
-375
-380
-370
-380
-375
-375
-390
-385
-375
-380
-385
-415
-470
-505
-520
-535
-575
-595
-530
-415
-250
-65
165
440
670
840
935
990
910
690
380
0
-305
-475
-515
-505
-470
-445
-415
-415
-420
-420
-425
-435
-415
-410
-410
-415
-415
-420
-410
-410
-400
-410
-425
-435
-420
-415
-405
-410
-430
-425
-425
-400
-415
-410
-415
-425
-415
-405
-405
-410
-410
-410
-410
-390
-385
-390
-405
-410
-395
-390
-395
-405
-400
-405
-410
-395
-390
-395
-400
-405
-400
-390
-390
-405
-405
-415
-400
-390
-395
-400
-415
-410
-390
-385
-400
-400
-420
-405
-400
-400
-395
-400
-420
-435
-415
-395
-400
-420
-425
-420
-415
-400
-405
-415
-420
-420
-405
-405
-395
-395
-395
-395
-385
-375
-370
-355
-370
-360
-345
-335
-320
-335
-335
-340
-325
-320
-315
-325
-335
-335
-315
-325
-320
-330
-330
-335
-330
-320
-330
-320
-325
-325
-330
-320
-320
-325
-335
-340
-330
-320
-330
-355
-360
-360
-355
-350
-355
-350
-365
-360
-370
-355
-365
-365
-365
-385
-375
-370
-360
-365
-375
-390
-385
-380
-375
-385
-395
-390
-395
-375
-390
-385
-400
-390
-380
-365
-365
-375
-375
-385
-385
-365
-365
-375
-400
-390
-380
-370
-375
-385
-395
-390
-390
-385
-390
-385
-385
-390
-390
-365
-355
-365
-370
-375
-375
-365
-370
-355
-345
-330
-320
-300
-300
-320
-325
-310
-305
-290
-275
-275
-290
-285
-275
-280
-285
-300
-300
-295
-275
-275
-290
-300
-295
-290
-265
-280
-310
-335
-355
-380
-395
-380
-400
-410
-415
-415
-405
-385
-400
-405
-425
-410
-395
-375
-385
-395
-400
-400
-390
-390
-390
-400
-410
-410
-410
-425
-425
-420
-440
-445
-455
-480
-505
-530
-565
-620
-630
-585
-490
-370
-250
-80
180
455
650
765
735
540
195
-135
-385
-525
-565
-530
-490
-465
-455
-460
-470
-465
-460
-445
-435
-440
-440
-450
-455
-445
-455
-460
-455
-460
-445
-435
-440
-450
-455
-450
-460
-445
-450
-450
-455
-470
-460
-455
-445
-460
-455
-455
-455
-460
-465
-465
-475
-465
-450
-445
-445
-455
-460
-455
-455
-440
-440
-450
-455
-460
-445
-435
-445
-455
-465
-485
-475
-455
-445
-445
-450
-455
-450
-435
-445
-450
-450
-460
-450
-440
-445
-460
-475
-475
-465
-460
-470
-480
-500
-500
-485
-485
-485
-490
-495
-505
-490
-500
-505
-505
-510
-515
-505
-500
-495
-505
-500
-500
-480
-455
-425
-425
-415
-405
-395
-380
-385
-380
-385
-395
-385
-370
-355
-355
-370
-370
-355
-345
-340
-345
-340
-345
-340
-335
-350
-350
-350
-355
-340
-335
-345
-335
-335
-335
-325
-315
-320
-340
-350
-350
-350
-335
-350
-365
-365
-370
-370
-355
-355
-360
-370
-370
-370
-355
-355
-355
-380
-370
-365
-350
-350
-365
-360
-375
-365
-360
-360
-380
-390
-385
-380
-375
-375
-385
-395
-405
-385
-365
-380
-385
-375
-375
-370
-360
-360
-370
-380
-380
-370
-355
-365
-370
-380
-380
-375
-365
-370
-385
-400
-390
-385
-365
-365
-385
-380
-385
-385
-365
-360
-355
-350
-350
-320
-310
-300
-305
-305
-305
-290
-275
-285
-275
-270
-270
-265
-255
-265
-285
-285
-300
-295
-280
-275
-290
-305
-310
-280
-245
-250
-275
-300
-325
-335
-345
-360
-360
-370
-385
-390
-385
-385
-385
-390
-400
-405
-395
-385
-395
-400
-410
-410
-390
-395
-395
-400
-400
-390
-370
-370
-380
-380
-395
-385
-380
-400
-425
-460
-495
-515
-520
-560
-595
-565
-465
-310
-165
30
295
550
755
860
815
575
205
-180
-440
-525
-520
-475
-440
-430
-440
-430
-415
-405
-420
-425
-435
-425
-415
-415
-420
-420
-425
-415
-400
-410
-400
-420
-415
-415
-400
-410
-410
-425
-435
-420
-410
-405
-420
-435
-425
-415
-420
-415
-410
-430
-430
-420
-405
-400
-410
-415
-415
-405
-400
-400
-410
-405
-415
-400
-400
-415
-420
-405
-420
-415
-410
-410
-420
-425
-415
-415
-410
-405
-410
-430
-425
-410
-405
-405
-410
-420
-425
-425
-415
-425
-430
-435
-445
-440
-450
-450
-460
-465
-465
-460
-455
-455
-450
-460
-460
-445
-430
-430
-445
-435
-425
-400
-385
-375
-375
-380
-370
-350
-330
-325
-325
-320
-315
-315
-295
-300
-295
-310
-300
-290
-280
-285
-285
-290
-300
-285
-280
-285
-280
-295
-305
-290
-275
-290
-295
-300
-315
-305
-290
-300
-305
-310
-310
-310
-300
-295
-305
-320
-315
-310
-300
-290
-300
-320
-320
-300
-295
-295
-310
-320
-315
-305
-310
-320
-325
-310
-325
-310
-310
-310
-325
-330
-330
-320
-300
-310
-300
-315
-325
-310
-295
-300
-310
-320
-330
-315
-300
-310
-325
-330
-340
-325
-320
-320
-330
-335
-330
-335
-315
-315
-320
-320
-330
-325
-325
-325
-320
-335
-330
-310
-295
-295
-310
-310
-310
-290
-285
-270
-260
-250
-260
-265
-250
-245
-250
-245
-245
-225
-195
-200
-205
-220
-225
-220
-215
-235
-220
-230
-235
-230
-230
-225
-220
-195
-180
-185
-210
-240
-255
-265
-285
-300
-300
-300
-315
-335
-340
-340
-315
-325
-330
-340
-350
-330
-320
-335
-330
-340
-345
-335
-340
-330
-340
-350
-350
-355
-350
-355
-395
-430
-475
-485
-495
-550
-570
-545
-440
-300
-135
40
285
565
805
945
950
740
340
-75
-370
-480
-465
-405
-370
-365
-380
-375
-360
-355
-370
-375
-375
-365
-360
-360
-375
-390
-390
-385
-375
-380
-370
-385
-380
-380
-370
-370
-385
-395
-400
-385
-365
-375
-385
-385
-390
-385
-375
-380
-380
-390
-385
-380
-375
-390
-390
-380
-380
-365
-350
-365
-365
-365
-375
-365
-370
-375
-375
-380
-385
-380
-365
-360
-360
-370
-375
-365
-355
-355
-365
-365
-365
-370
-355
-365
-360
-365
-370
-360
-345
-340
-360
-365
-375
-365
-360
-365
-370
-390
-390
-385
-365
-365
-370
-380
-380
-375
-360
-355
-355
-370
-375
-355
-335
-330
-320
-325
-320
-305
-295
-290
-290
-300
-295
-280
-275
-270
-265
-275
-280
-270
-260
-270
-265
-280
-290
-280
-265
-265
-265
-270
-285
-265
-255
-255
-270
-270
-280
-265
-260
-265
-275
-285
-290
-280
-280
-285
-290
-295
-300
-295
-285
-285
-295
-300
-305
-305
-300
-290
-290
-315
-310
-290
-280
-280
-290
-305
-295
-295
-290
-305
-305
-320
-310
-315
-300
-310
-310
-325
-320
-320
-305
-315
-310
-325
-335
-305
-310
-300
-310
-310
-310
-310
-295
-285
-295
-305
-310
-310
-300
-285
-295
-305
-305
-300
-295
-295
-305
-310
-320
-315
-300
-295
-300
-295
-300
-280
-260
-250
-240
-245
-240
-230
-220
-210
-195
-205
-195
-185
-180
-175
-185
-205
-215
-205
-205
-200
-205
-225
-230
-225
-195
-170
-175
-215
-245
-250
-240
-260
-280
-305
-315
-315
-310
-305
-310
-320
-335
-320
-305
-310
-310
-330
-340
-330
-310
-325
-335
-340
-345
-335
-325
-325
-340
-340
-345
-365
-385
-420
-445
-470
-510
-535
-495
-395
-275
-150
30
280
540
750
890
970
1020
995
870
665
385
90
-180
-370
-465
-475
-455
-440
-395
-370
-360
-350
-355
-355
-360
-355
-355
-350
-350
-365
-365
-360
-355
-355
-370
-375
-380
-370
-370
-360
-365
-385
-390
-365
-360
-360
-355
-365
-375
-365
-360
-360
-360
-370
-370
-360
-350
-355
-360
-365
-380
-360
-350
-360
-350
-380
-385
-370
-355
-355
-355
-375
-370
-345
-345
-350
-355
-365
-355
-340
-330
-340
-355
-365
-360
-335
-340
-350
-365
-370
-370
-370
-365
-360
-355
-375
-380
-370
-360
-365
-380
-385
-385
-390
-380
-385
-390
-405
-395
-380
-360
-350
-360
-360
-360
-340
-325
-320
-310
-320
-335
-315
-305
-315
-305
-315
-310
-280
-290
-285
-295
-300
-285
-285
-290
-290
-295
-300
-315
-300
-290
-280
-295
-305
-300
-300
-290
-300
-310
-315
-320
-310
-320
-315
-325
-330
-335
-330
-325
-310
-320
-330
-340
-345
-335
-330
-335
-345
-335
-330
-325
-325
-335
-335
-335
-340
-330
-335
-345
-350
-360
-355
-345
-335
-340
-355
-355
-345
-335
-340
-350
-355
-355
-355
-345
-345
-350
-355
-355
-345
-350
-335
-335
-355
-355
-350
-350
-340
-355
-375
-365
-355
-345
-360
-350
-355
-345
-335
-315
-295
-295
-305
-305
-290
-280
-265
-265
-265
-265
-240
-230
-235
-250
-250
-255
-255
-260
-265
-270
-270
-265
-260
-275
-270
-260
-250
-260
-275
-290
-295
-320
-340
-370
-360
-370
-385
-390
-400
-385
-385
-380
-370
-380
-385
-380
-375
-375
-380
-395
-400
-395
-380
-370
-370
-375
-395
-400
-385
-385
-385
-400
-430
-445
-465
-475
-510
-575
-605
-565
-450
-305
-140
60
300
550
740
810
715
420
35
-300
-465
-520
-490
-450
-425
-445
-435
-435
-440
-430
-425
-430
-410
-415
-415
-420
-445
-455
-435
-425
-420
-430
-435
-435
-435
-425
-430
-430
-445
-450
-445
-430
-435
-430
-435
-430
-425
-420
-415
-415
-440
-445
-435
-425
-430
-440
-465
-460
-450
-445
-450
-455
-445
-450
-440
-430
-415
-425
-425
-445
-430
-430
-445
-445
-455
-445
-450
-440
-435
-440
-450
-460
-450
-440
-440
-450
-455
-470
-470
-475
-485
-475
-475
-485
-480
-475
-485
-490
-505
-510
-515
-505
-480
-495
-485
-485
-460
-440
-435
-420
-415
-420
-400
-380
-360
-360
-370
-370
-355
-340
-330
-325
-335
-350
-345
-335
-335
-335
-355
-350
-350
-340
-335
-340
-350
-355
-345
-330
-335
-340
-350
-350
-345
-340
-350
-355
-360
-375
-370
-360
-355
-370
-370
-380
-380
-365
-375
-380
-390
-390
-390
-370
-370
-375
-395
-380
-375
-355
-360
-370
-380
-385
-380
-375
-380
-380
-395
-390
-385
-375
-380
-380
-385
-395
-390
-395
-370
-380
-375
-380
-370
-360
-375
-385
-385
-390
-390
-375
-375
-375
-385
-395
-400
-380
-375
-375
-390
-385
-365
-335
-335
-315
-325
-320
-305
-305
-295
-290
-290
-290
-285
-275
-285
-295
-315
-305
-300
-285
-285
-290
-305
-310
-305
-305
-280
-285
-290
-315
-335
-345
-345
-375
-375
-380
-385
-390
-385
-390
-390
-400
-420
-405
-405
-405
-415
-420
-420
-420
-400
-415
-420
-425
-415
-405
-405
-410
-425
-450
-480
-510
-525
-550
-610
-645
-630
-565
-485
-395
-310
-230
-95
70
300
545
725
815
810
630
270
-140
-405
-515
-535
-485
-435
-430
-430
-435
-420
-425
-415
-420
-440
-445
-430
-435
-425
-430
-440
-445
-430
-430
-440
-440
-445
-455
-435
-435
-425
-425
-435
-450
-430
-420
-420
-425
-445
-440
-435
-425
-430
-435
-435
-430
-410
-420
-415
-420
-440
-430
-420
-420
-415
-430
-440
-435
-425
-425
-425
-410
-425
-430
-425
-405
-415
-415
-420
-430
-420
-420
-425
-430
-435
-445
-445
-440
-440
-450
-460
-465
-455
-450
-445
-465
-465
-470
-480
-460
-450
-460
-470
-475
-455
-440
-445
-435
-450
-445
-405
-395
-385
-380
-375
-375
-360
-345
-340
-325
-330
-330
-325
-310
-310
-305
-320
-320
-315
-300
-310
-320
-330
-330
-320
-320
-315
-320
-325
-330
-330
-325
-325
-330
-350
-340
-335
-335
-330
-330
-335
-345
-335
-320
-320
-335
-335
-355
-340
-335
-345
-350
-360
-360
-365
-355
-340
-355
-375
-365
-365
-355
-360
-350
-360
-375
-365
-360
-365
-360
-365
-355
-355
-345
-340
-350
-360
-365
-355
-345
-365
-360
-370
-365
-375
-360
-370
-365
-375
-380
-370
-365
-365
-360
-370
-370
-370
-370
-360
-360
-370
-365
-350
-345
-340
-335
-340
-315
-300
-285
-285
-290
-300
-300
-285
-275
-260
-260
-265
-270
-265
-255
-260
-265
-280
-295
-275
-280
-270
-290
-285
-275
-250
-225
-255
-285
-305
-320
-340
-340
-365
-375
-400
-400
-390
-390
-380
-385
-395
-400
-405
-395
-390
-385
-405
-410
-400
-400
-395
-395
-405
-400
-395
-390
-405
-420
-435
-455
-485
-500
-505
-520
-535
-555
-585
-580
-530
-415
-285
-120
80
320
575
755
805
720
470
120
-210
-425
-485
-475
-435
-410
-405
-435
-425
-430
-420
-415
-425
-435
-445
-445
-445
-440
-425
-430
-440
-435
-435
-440
-440
-440
-450
-460
-440
-425
-425
-425
-430
-440
-435
-425
-420
-440
-435
-440
-445
-435
-435
-440
-450
-455
-440
-435
-430
-435
-435
-440
-440
-440
-445
-435
-435
-445
-440
-430
-425
-430
-440
-445
-435
-430
-420
-430
-435
-455
-440
-440
-440
-440
-445
-445
-435
-435
-425
-425
-440
-440
-450
-435
-440
-455
-455
-465
-450
-450
-445
-455
-455
-455
-455
-435
-435
-435
-430
-425
-410
-385
-375
-380
-380
-380
-355
-355
-355
-355
-365
-340
-330
-330
-335
-350
-345
-340
-340
-330
-330
-335
-345
-350
-345
-340
-340
-335
-355
-355
-345
-340
-350
-355
-355
-355
-360
-355
-360
-365
-370
-375
-365
-365
-365
-370
-385
-390
-390
-370
-370
-375
-385
-395
-395
-365
-370
-390
-390
-395
-385
-390
-390
-380
-390
-405
-390
-395
-400
-400
-415
-410
-405
-390
-385
-395
-410
-405
-380
-375
-385
-375
-380
-385
-370
-370
-370
-370
-380
-380
-385
-375
-380
-380
-385
-390
-365
-365
-355
-375
-360
-355
-335
-315
-305
-300
-310
-315
-290
-270
-270
-270
-290
-285
-275
-265
-270
-285
-300
-310
-295
-285
-285
-295
-310
-315
-285
-260
-265
-300
-345
-350
-350
-345
-370
-395
-390
-400
-390
-395
-400
-400
-415
-430
-425
-405
-420
-430
-425
-420
-410
-405
-400
-405
-425
-425
-415
-415
-420
-430
-475
-505
-535
-535
-585
-640
-650
-585
-480
-390
-340
-265
-175
-40
150
375
560
705
770
725
490
140
-230
-480
-565
-540
-480
-450
-440
-450
-450
-450
-445
-430
-430
-450
-460
-465
-460
-455
-450
-450
-455
-460
-450
-445
-450
-455
-465
-470
-455
-445
-455
-455
-455
-455
-435
-435
-425
-445
-440
-450
-450
-455
-450
-455
-465
-460
-460
-445
-445
-460
-470
-465
-455
-435
-440
-450
-455
-465
-465
-465
-450
-445
-445
-445
-445
-430
-430
-435
-460
-450
-440
-425
-440
-455
-460
-475
-470
-455
-455
-470
-485
-485
-470
-470
-470
-480
-490
-490
-475
-460
-465
-475
-485
-485
-475
-480
-470
-475
-480
-480
-445
-440
-415
-415
-410
-410
-390
-380
-380
-385
-390
-380
-365
-360
-355
-365
-365
-365
-350
-350
-345
-355
-375
-385
-375
-355
-355
-350
-355
-370
-355
-355
-355
-375
-380
-380
-370
-360
-360
-370
-395
-395
-380
-365
-355
-375
-380
-375
-370
-370
-370
-395
-405
-405
-395
-400
-400
-410
-405
-410
-410
-400
-400
-410
-420
-415
-410
-395
-390
-395
-405
-405
-390
-390
-395
-405
-405
-415
-415
-420
-405
-405
-405
-430
-410
-410
-405
-410
-420
-420
-415
-400
-405
-405
-420
-405
-415
-400
-390
-395
-395
-395
-390
-380
-365
-345
-350
-345
-335
-340
-340
-345
-345
-335
-315
-290
-275
-275
-285
-300
-295
-300
-310
-305
-305
-310
-310
-320
-295
-295
-295
-310
-330
-335
-340
-365
-375
-400
-405
-400
-415
-415
-425
-425
-430
-405
-400
-400
-420
-425
-430
-415
-415
-430
-435
-430
-425
-420
-425
-425
-430
-425
-425
-425
-430
-445
-475
-525
-540
-535
-570
-605
-620
-555
-420
-285
-130
95
355
600
775
830
685
360
-30
-345
-495
-535
-530
-490
-475
-480
-465
-470
-465
-455
-465
-480
-480
-450
-455
-460
-470
-475
-460
-450
-445
-465
-470
-465
-445
-445
-445
-450
-455
-465
-450
-450
-445
-455
-465
-465
-465
-445
-445
-450
-465
-470
-465
-455
-455
-460
-455
-460
-460
-445
-445
-445
-450
-460
-440
-435
-430
-440
-450
-450
-440
-435
-430
-440
-455
-460
-435
-440
-435
-440
-445
-455
-460
-440
-445
-455
-460
-460
-450
-455
-450
-460
-465
-475
-465
-470
-465
-475
-500
-515
-495
-490
-495
-505
-505
-510
-495
-490
-485
-485
-495
-490
-480
-460
-450
-450
-445
-435
-420
-415
-400
-400
-390
-380
-370
-360
-345
-350
-345
-345
-340
-325
-320
-335
-330
-330
-325
-310
-305
-310
-330
-320
-315
-305
-315
-310
-335
-335
-325
-325
-325
-335
-355
-345
-325
-325
-330
-330
-340
-350
-330
-325
-335
-335
-330
-345
-340
-330
-325
-340
-340
-345
-330
-320
-330
-320
-330
-335
-355
-335
-335
-340
-350
-355
-350
-345
-335
-350
-350
-355
-360
-350
-340
-355
-365
-370
-360
-340
-335
-345
-345
-355
-350
-335
-335
-330
-340
-340
-330
-320
-325
-335
-350
-345
-345
-340
-350
-335
-340
-355
-340
-330
-330
-345
-345
-345
-330
-305
-295
-285
-275
-270
-265
-245
-245
-250
-260
-260
-255
-235
-230
-235
-230
-230
-225
-215
-215
-235
-250
-255
-255
-235
-240
-240
-255
-265
-240
-205
-180
-210
-240
-265
-275
-285
-300
-325
-340
-340
-350
-340
-345
-345
-350
-350
-340
-330
-330
-330
-345
-350
-335
-335
-315
-335
-340
-345
-340
-330
-325
-340
-335
-345
-340
-330
-335
-355
-385
-425
-460
-465
-490
-525
-570
-570
-485
-380
-225
-65
110
360
640
840
960
970
790
440
25
-285
-425
-460
-435
-395
-365
-355
-370
-370
-370
-375
-380
-375
-365
-375
-390
-385
-380
-380
-360
-370
-380
-390
-370
-360
-360
-375
-385
-390
-385
-375
-365
-380
-390
-380
-375
-365
-365
-375
-380
-385
-370
-365
-355
-360
-375
-390
-375
-360
-355
-375
-380
-370
-360
-360
-360
-365
-375
-370
-365
-360
-365
-365
-375
-370
-375
-365
-365
-365
-370
-390
-375
-365
-370
-370
-375
-370
-365
-365
-360
-360
-380
-375
-355
-350
-350
-365
-375
-375
-370
-365
-370
-385
-390
-400
-390
-380
-375
-380
-380
-390
-375
-360
-365
-370
-350
-355
-335
-320
-310
-315
-305
-300
-290
-285
-265
-265
-285
-270
-255
-240
-230
-245
-245
-255
-245
-230
-240
-245
-240
-260
-240
-240
-245
-250
-245
-255
-245
-245
-235
-250
-255
-265
-255
-245
-245
-250
-260
-260
-250
-250
-245
-270
-265
-275
-275
-265
-270
-280
-275
-280
-285
-265
-270
-275
-285
-285
-275
-275
-270
-275
-290
-295
-280
-270
-275
-285
-300
-305
-290
-290
-290
-295
-290
-305
-305
-290
-290
-300
-320
-305
-295
-280
-285
-300
-290
-290
-295
-280
-270
-275
-290
-300
-290
-280
-275
-285
-300
-300
-290
-285
-275
-285
-290
-295
-280
-280
-270
-270
-250
-245
-225
-215
-205
-205
-215
-210
-195
-180
-175
-180
-185
-190
-180
-165
-160
-180
-180
-200
-195
-185
-190
-190
-185
-200
-195
-195
-210
-200
-190
-180
-155
-180
-210
-235
-245
-255
-260
-270
-270
-290
-305
-310
-300
-275
-290
-290
-295
-300
-315
-305
-300
-310
-300
-310
-300
-305
-290
-300
-305
-315
-300
-305
-325
-360
-415
-450
-455
-490
-530
-505
-430
-305
-180
-60
80
285
485
690
865
955
995
880
585
135
-210
-400
-425
-405
-360
-335
-335
-340
-335
-340
-350
-355
-350
-350
-350
-355
-370
-370
-355
-350
-355
-340
-350
-365
-355
-345
-345
-345
-350
-350
-340
-330
-325
-330
-345
-350
-335
-325
-330
-325
-340
-340
-335
-330
-330
-330
-345
-340
-335
-345
-335
-335
-350
-345
-335
-335
-335
-340
-345
-345
-345
-335
-340
-335
-355
-355
-345
-335
-335
-340
-350
-350
-345
-330
-335
-350
-350
-360
-350
-330
-340
-340
-345
-350
-335
-345
-335
-345
-355
-355
-335
-340
-340
-355
-360
-360
-350
-340
-330
-340
-340
-335
-305
-300
-295
-300
-290
-290
-270
-255
-265
-265
-260
-255
-245
-240
-240
-250
-250
-250
-235
-235
-230
-250
-250
-250
-245
-230
-235
-245
-255
-255
-250
-245
-245
-250
-255
-260
-260
-250
-250
-250
-265
-270
-275
-265
-260
-260
-270
-280
-270
-260
-255
-270
-270
-280
-270
-265
-270
-260
-275
-275
-265
-270
-270
-270
-275
-275
-270
-260
-270
-280
-285
-290
-290
-285
-270
-285
-305
-305
-290
-290
-280
-285
-285
-290
-295
-275
-275
-285
-290
-290
-280
-265
-260
-270
-270
-280
-270
-265
-265
-270
-285
-280
-275
-270
-275
-265
-275
-275
-270
-260
-265
-265
-260
-255
-245
-215
-200
-210
-220
-210
-195
-175
-175
-160
-175
-165
-160
-155
-155
-170
-185
-190
-175
-170
-170
-175
-195
-205
-185
-155
-135
-160
-195
-220
-215
-215
-245
-270
-290
-310
-295
-285
-285
-285
-295
-305
-295
-295
-295
-300
-305
-305
-295
-290
-295
-300
-315
-320
-310
-305
-300
-300
-305
-315
-335
-370
-405
-430
-455
-510
-535
-515
-440
-320
-205
-50
205
490
715
830
815
620
270
-100
-355
-455
-455
-400
-355
-350
-345
-355
-365
-370
-355
-340
-345
-350
-355
-365
-360
-365
-360
-365
-365
-370
-370
-355
-355
-355
-360
-365
-340
-340
-345
-350
-365
-365
-350
-340
-350
-350
-370
-360
-355
-350
-345
-355
-370
-370
-360
-355
-355
-345
-360
-360
-355
-345
-340
-340
-360
-355
-355
-350
-350
-350
-360
-350
-340
-335
-340
-355
-365
-360
-365
-355
-355
-350
-360
-375
-365
-355
-370
-375
-375
-380
-375
-380
-365
-370
-390
-405
-400
-395
-380
-390
-390
-400
-390
-380
-385
-405
-385
-385
-355
-345
-335
-330
-335
-320
-300
-285
-280
-285
-285
-295
-285
-270
-270
-270
-275
-285
-275
-265
-255
-255
-275
-280
-270
-265
-275
-280
-270
-270
-255
-250
-245
-265
-275
-290
-285
-270
-265
-250
-270
-280
-280
-280
-280
-285
-305
-295
-290
-295
-280
-290
-295
-305
-295
-290
-285
-275
-290
-305
-300
-295
-290
-295
-300
-310
-295
-300
-285
-295
-310
-315
-310
-310
-310
-320
-305
-295
-280
-280
-280
-295
-305
-305
-300
-295
-290
-300
-285
-295
-295
-295
-295
-295
-305
-310
-300
-290
-290
-290
-300
-300
-270
-245
-240
-250
-250
-250
-225
-210
-195
-190
-190
-190
-190
-195
-185
-185
-210
-200
-200
-185
-200
-215
-230
-240
-210
-175
-175
-215
-245
-265
-265
-270
-290
-300
-300
-325
-315
-305
-290
-285
-285
-285
-275
-270
-280
-295
-310
-330
-320
-305
-300
-315
-315
-325
-315
-320
-330
-330
-325
-325
-320
-335
-365
-400
-430
-475
-505
-515
-450
-350
-210
-60
170
445
715
885
925
760
415
35
-250
-410
-460
-440
-385
-350
-350
-340
-355
-360
-350
-345
-350
-350
-370
-365
-350
-340
-340
-345
-355
-370
-355
-345
-340
-345
-355
-360
-345
-350
-345
-340
-360
-365
-355
-355
-350
-345
-360
-365
-355
-350
-345
-350
-355
-350
-360
-345
-345
-345
-355
-365
-345
-340
-350
-330
-360
-360
-350
-340
-335
-340
-350
-345
-340
-340
-340
-345
-345
-370
-355
-345
-345
-365
-380
-380
-380
-385
-375
-390
-390
-400
-400
-395
-395
-410
-405
-415
-405
-385
-380
-380
-385
-380
-355
-340
-325
-330
-325
-305
-295
-280
-285
-280
-270
-270
-260
-250
-245
-250
-260
-255
-250
-245
-235
-230
-240
-250
-240
-230
-230
-235
-235
-240
-240
-235
-230
-235
-260
-250
-245
-235
-235
-235
-250
-260
-255
-240
-240
-240
-255
-250
-245
-245
-235
-245
-260
-260
-250
-250
-245
-245
-255
-255
-260
-255
-255
-260
-260
-260
-260
-245
-240
-255
-260
-275
-255
-255
-255
-250
-270
-265
-260
-255
-250
-255
-255
-280
-270
-270
-255
-255
-265
-270
-260
-255
-245
-245
-250
-265
-275
-235
-245
-260
-260
-255
-250
-240
-230
-245
-245
-250
-215
-190
-180
-190
-190
-185
-170
-175
-160
-155
-150
-155
-130
-135
-140
-150
-150
-165
-160
-160
-150
-160
-175
-185
-160
-140
-115
-140
-180
-200
-205
-200
-235
-250
-250
-265
-265
-265
-250
-255
-260
-260
-255
-250
-250
-255
-260
-265
-260
-260
-260
-260
-275
-285
-270
-265
-265
-275
-275
-280
-280
-265
-300
-340
-385
-415
-430
-470
-450
-380
-235
-80
120
380
670
900
1030
980
755
370
-45
-330
-410
-380
-320
-285
-290
-295
-310
-310
-310
-300
-300
-300
-310
-320
-310
-310
-300
-310
-315
-315
-315
-310
-305
-315
-310
-315
-320
-305
-305
-300
-305
-325
-310
-290
-300
-305
-310
-320
-315
-300
-295
-290
-305
-315
-310
-310
-295
-305
-310
-320
-305
-305
-305
-305
-305
-315
-305
-310
-300
-305
-305
-305
-305
-305
-305
-315
-320
-320
-305
-295
-300
-305
-315
-320
-310
-310
-300
-310
-320
-310
-315
-305
-300
-310
-320
-320
-320
-315
-305
-310
-320
-315
-310
-295
-285
-275
-280
-270
-250
-235
-225
-220
-230
-225
-220
-210
-190
-195
-200
-210
-200
-195
-185
-190
-190
-190
-180
-175
-180
-185
-200
-195
-190
-195
-180
-190
-200
-210
-200
-200
-205
-210
-220
-210
-210
-205
-195
-205
-215
-215
-215
-210
-205
-215
-215
-220
-220
-210
-210
-225
-230
-230
-230
-230
-215
-235
-245
-245
-245
-230
-225
-235
-230
-245
-235
-225
-225
-225
-235
-250
-225
-225
-225
-230
-230
-245
-240
-230
-215
-225
-235
-230
-235
-220
-210
-215
-220
-230
-215
-210
-205
-215
-210
-220
-235
-205
-215
-205
-205
-210
-195
-170
-155
-165
-165
-170
-155
-125
-130
-130
-120
-130
-120
-100
-100
-110
-120
-140
-135
-130
-115
-120
-145
-145
-140
-95
-80
-100
-145
-170
-175
-180
-205
-215
-220
-235
-235
-230
-225
-230
-245
-260
-240
-240
-235
-245
-235
-260
-245
-250
-250
-235
-245
-250
-245
-240
-220
-230
-230
-235
-250
-255
-275
-325
-350
-385
-380
-410
-445
-455
-410
-295
-130
35
255
530
760
910
970
855
560
165
-160
-345
-375
-330
-280
-270
-275
-285
-275
-270
-260
-270
-280
-295
-280
-280
-275
-290
-295
-295
-290
-280
-275
-285
-285
-290
-280
-280
-270
-280
-295
-300
-290
-270
-275
-270
-285
-295
-275
-270
-260
-265
-275
-280
-280
-275
-255
-270
-270
-280
-280
-270
-270
-270
-285
-285
-285
-265
-275
-280
-290
-295
-280
-285
-275
-270
-270
-280
-275
-275
-265
-270
-280
-295
-285
-275
-270
-285
-285
-295
-290
-285
-280
-285
-290
-310
-305
-300
-295
-305
-310
-315
-310
-305
-285
-290
-295
-295
-290
-275
-260
-255
-245
-260
-245
-215
-220
-215
-220
-215
-205
-180
-200
-190
-200
-195
-185
-175
-180
-190
-175
-195
-190
-190
-185
-185
-195
-195
-190
-185
-170
-175
-195
-210
-200
-190
-195
-195
-200
-210
-200
-200
-200
-205
-215
-220
-205
-195
-190
-210
-230
-225
-230
-215
-220
-220
-215
-225
-205
-210
-205
-210
-215
-225
-215
-220
-215
-220
-230
-235
-230
-220
-215
-225
-235
-240
-220
-230
-230
-220
-240
-250
-240
-230
-230
-240
-230
-235
-240
-220
-210
-210
-225
-225
-235
-230
-235
-240
-245
-250
-240
-220
-215
-220
-220
-230
-215
-200
-195
-185
-180
-185
-185
-160
-155
-155
-145
-155
-135
-125
-120
-125
-145
-145
-145
-135
-135
-150
-155
-150
-145
-155
-170
-175
-165
-160
-140
-120
-105
-110
-140
-175
-180
-180
-180
-200
-225
-245
-255
-245
-250
-265
-280
-275
-260
-245
-245
-255
-275
-285
-265
-265
-255
-255
-275
-285
-285
-280
-265
-290
-295
-300
-285
-290
-305
-340
-370
-390
-405
-465
-475
-460
-375
-270
-135
60
300
565
760
890
885
750
440
90
-205
-360
-420
-405
-360
-330
-330
-340
-330
-315
-290
-305
-305
-320
-300
-290
-305
-310
-305
-315
-325
-315
-310
-310
-315
-315
-315
-315
-305
-315
-315
-320
-315
-315
-320
-325
-330
-335
-330
-325
-310
-310
-310
-320
-305
-310
-315
-320
-325
-340
-330
-320
-320
-315
-315
-320
-305
-320
-320
-330
-330
-335
-320
-300
-300
-315
-315
-310
-305
-295
-300
-300
-310
-320
-315
-320
-325
-320
-330
-335
-320
-315
-315
-330
-335
-350
-345
-340
-340
-340
-340
-360
-365
-350
-350
-360
-375
-365
-370
-365
-350
-350
-340
-340
-335
-330
-305
-300
-290
-275
-275
-260
-265
-255
-255
-245
-225
-210
-210
-220
-225
-230
-215
-215
-205
-220
-210
-225
-220
-210
-210
-215
-220
-235
-220
-205
-205
-215
-225
-230
-225
-215
-220
-220
-215
-230
-240
-225
-225
-230
-225
-240
-230
-235
-245
-255
-255
-260
-260
-250
-240
-245
-250
-255
-245
-225
-245
-265
-270
-285
-275
-260
-255
-260
-250
-265
-265
-260
-245
-250
-255
-280
-265
-255
-250
-260
-265
-265
-255
-250
-255
-265
-275
-280
-255
-250
-245
-250
-255
-275
-260
-245
-235
-250
-265
-265
-255
-260
-255
-255
-240
-245
-230
-220
-200
-205
-215
-200
-200
-175
-160
-160
-165
-170
-160
-140
-145
-150
-165
-170
-175
-165
-170
-175
-180
-205
-190
-170
-160
-145
-145
-185
-205
-210
-220
-240
-265
-280
-275
-265
-280
-280
-280
-280
-275
-270
-275
-280
-295
-290
-285
-275
-275
-280
-275
-295
-285
-280
-285
-275
-300
-305
-325
-355
-370
-400
-440
-490
-500
-445
-340
-210
-90
95
350
620
840
985
1000
860
550
195
-95
-290
-385
-430
-445
-430
-415
-395
-350
-340
-335
-325
-320
-315
-325
-325
-320
-315
-310
-315
-325
-335
-315
-305
-305
-315
-320
-320
-320
-310
-320
-300
-310
-320
-320
-305
-305
-315
-310
-315
-310
-295
-300
-295
-305
-320
-305
-300
-300
-300
-310
-320
-300
-305
-290
-295
-305
-330
-315
-310
-295
-310
-315
-320
-300
-310
-300
-295
-315
-320
-310
-305
-305
-300
-300
-305
-300
-305
-300
-300
-300
-320
-325
-315
-305
-310
-335
-350
-345
-315
-335
-330
-345
-355
-345
-345
-350
-340
-355
-365
-350
-350
-340
-345
-340
-350
-335
-315
-310
-290
-295
-290
-280
-255
-240
-235
-245
-240
-225
-220
-210
-210
-205
-210
-210
-195
-185
-190
-195
-220
-200
-200
-185
-190
-205
-205
-205
-205
-195
-195
-200
-205
-200
-200
-190
-205
-205
-210
-200
-200
-195
-205
-220
-220
-220
-210
-210
-210
-215
-230
-220
-215
-225
-220
-225
-235
-220
-220
-210
-230
-245
-245
-235
-225
-235
-230
-245
-255
-245
-235
-235
-235
-235
-245
-240
-235
-225
-240
-240
-245
-235
-235
-235
-235
-240
-245
-240
-235
-225
-240
-250
-255
-250
-235
-220
-225
-240
-230
-225
-225
-220
-235
-235
-245
-235
-225
-225
-220
-230
-235
-220
-210
-190
-190
-180
-185
-160
-150
-150
-145
-150
-155
-135
-120
-115
-115
-115
-135
-130
-130
-125
-145
-140
-145
-140
-140
-140
-130
-115
-110
-115
-130
-145
-155
-170
-190
-190
-190
-185
-205
-220
-235
-235
-225
-240
-235
-235
-235
-235
-230
-230
-240
-250
-245
-245
-235
-245
-240
-240
-255
-255
-250
-240
-250
-255
-280
-295
-320
-360
-375
-405
-455
-475
-415
-300
-160
5
205
490
770
985
1045
955
645
220
-145
-345
-385
-345
-300
-280
-260
-275
-270
-270
-280
-275
-275
-270
-290
-290
-295
-295
-295
-280
-280
-290
-290
-295
-285
-295
-280
-290
-290
-280
-270
-265
-275
-275
-285
-285
-270
-275
-275
-285
-285
-270
-280
-280
-285
-280
-295
-285
-275
-275
-280
-285
-290
-290
-280
-275
-275
-275
-290
-275
-265
-275
-265
-275
-290
-280
-265
-270
-270
-280
-280
-275
-270
-265
-270
-285
-285
-275
-280
-275
-280
-275
-290
-285
-270
-280
-280
-280
-290
-290
-280
-280
-285
-290
-290
-290
-290
-290
-295
-295
-290
-295
-275
-260
-260
-275
-265
-255
-240
-235
-225
-215
-220
-210
-195
-195
-190
-175
-190
-185
-170
-155
-170
-175
-195
-170
-160
-170
-165
-185
-195
-180
-170
-165
-165
-180
-190
-190
-180
-170
-175
-185
-190
-190
-185
-180
-195
-190
-200
-190
-190
-190
-195
-200
-205
-200
-200
-200
-195
-200
-215
-210
-200
-190
-205
-210
-210
-215
-205
-200
-205
-220
-230
-225
-210
-215
-205
-220
-225
-230
-230
-215
-220
-220
-230
-225
-220
-225
-220
-230
-250
-235
-225
-210
-225
-230
-235
-225
-225
-220
-225
-220
-235
-230
-215
-220
-225
-220
-230
-230
-215
-220
-220
-215
-220
-205
-185
-170
-155
-160
-160
-160
-150
-140
-130
-135
-125
-120
-115
-105
-115
-120
-135
-145
-140
-140
-140
-145
-150
-160
-150
-130
-100
-110
-140
-160
-170
-175
-175
-200
-215
-225
-225
-215
-220
-230
-250
-250
-250
-250
-245
-255
-255
-255
-250
-245
-255
-265
-275
-260
-260
-255
-250
-270
-275
-265
-265
-260
-270
-290
-300
-310
-345
-365
-390
-430
-475
-495
-450
-350
-225
-95
60
290
555
780
915
925
810
525
190
-135
-325
-410
-390
-335
-300
-295
-295
-300
-305
-300
-290
-295
-295
-295
-310
-300
-285
-285
-300
-300
-305
-300
-295
-290
-285
-295
-295
-300
-295
-290
-305
-310
-320
-315
-290
-295
-300
-300
-310
-300
-290
-280
-290
-300
-310
-300
-290
-290
-280
-290
-320
-305
-300
-295
-305
-310
-310
-305
-310
-290
-295
-290
-300
-295
-290
-285
-295
-300
-300
-290
-285
-280
-285
-295
-295
-295
-285
-280
-285
-285
-300
-280
-295
-285
-290
-290
-305
-305
-295
-295
-300
-300
-310
-305
-290
-295
-300
-300
-310
-320
-300
-310
-295
-305
-300
-295
-270
-260
-260
-255
-265
-250
-230
-225
-220
-235
-245
-235
-220
-215
-210
-210
-230
-215
-210
-225
-225
-240
-245
-225
-230
-215
-225
-220
-235
-230
-240
-225
-225
-235
-245
-235
-230
-235
-235
-250
-270
-250
-240
-245
-250
-255
-265
-255
-255
-255
-245
-250
-270
-265
-275
-255
-265
-265
-280
-285
-280
-275
-280
-285
-285
-270
-270
-265
-270
-275
-285
-285
-285
-290
-290
-290
-305
-295
-285
-275
-275
-280
-290
-295
-285
-270
-280
-295
-290
-295
-290
-285
-285
-280
-300
-285
-275
-270
-275
-285
-280
-285
-270
-260
-265
-275
-275
-255
-230
-225
-220
-225
-235
-220
-210
-195
-190
-190
-205
-195
-180
-185
-185
-200
-210
-200
-185
-200
-210
-210
-205
-190
-185
-215
-245
-265
-285
-305
-295
-290
-290
-300
-310
-300
-300
-295
-300
-310
-320
-310
-300
-305
-295
-320
-330
-345
-345
-315
-325
-340
-335
-335
-335
-320
-320
-340
-395
-425
-435
-460
-515
-545
-525
-405
-270
-125
70
330
575
765
850
760
460
85
-220
-390
-465
-445
-405
-400
-395
-400
-380
-370
-375
-380
-375
-360
-360
-345
-370
-370
-365
-365
-355
-345
-355
-350
-370
-365
-360
-365
-370
-385
-385
-385
-380
-375
-365
-375
-380
-375
-380
-385
-380
-375
-375
-360
-355
-355
-370
-385
-385
-385
-370
-355
-360
-360
-375
-365
-360
-355
-355
-360
-370
-365
-370
-360
-365
-375
-365
-375
-370
-370
-375
-385
-390
-380
-370
-370
-385
-395
-400
-395
-400
-385
-390
-405
-420
-425
-430
-420
-425
-430
-445
-425
-400
-405
-405
-420
-435
-415
-385
-380
-375
-370
-360
-335
-320
-310
-305
-310
-315
-305
-295
-295
-290
-290
-295
-290
-285
-280
-285
-310
-305
-295
-295
-295
-290
-280
-295
-280
-280
-270
-290
-305
-285
-285
-280
-290
-285
-300
-295
-295
-295
-295
-300
-320
-315
-310
-300
-285
-290
-315
-320
-305
-295
-290
-305
-325
-330
-325
-305
-310
-310
-320
-325
-335
-320
-315
-310
-325
-330
-325
-320
-315
-315
-320
-330
-325
-315
-315
-310
-330
-325
-320
-315
-315
-325
-320
-325
-325
-300
-305
-315
-325
-320
-310
-305
-295
-300
-315
-315
-315
-305
-305
-300
-300
-305
-275
-260
-250
-250
-260
-270
-255
-230
-220
-210
-225
-240
-225
-215
-215
-230
-240
-230
-235
-225
-225
-235
-260
-260
-245
-220
-220
-240
-280
-295
-305
-310
-320
-320
-345
-345
-340
-320
-325
-330
-330
-340
-345
-340
-335
-345
-340
-350
-345
-335
-330
-345
-345
-355
-355
-345
-345
-350
-375
-410
-450
-470
-480
-520
-555
-530
-410
-265
-90
120
370
625
830
910
810
505
70
-280
-450
-470
-435
-390
-375
-380
-375
-375
-370
-365
-375
-385
-390
-375
-375
-370
-385
-390
-375
-380
-365
-375
-385
-395
-385
-365
-350
-365
-355
-370
-365
-360
-360
-360
-370
-380
-375
-375
-375
-360
-375
-385
-375
-365
-370
-360
-370
-375
-380
-380
-370
-370
-370
-380
-380
-375
-370
-370
-375
-385
-375
-370
-360
-365
-370
-390
-380
-370
-370
-385
-385
-405
-390
-385
-385
-385
-400
-410
-410
-400
-410
-400
-415
-420
-415
-405
-400
-405
-410
-425
-405
-400
-385
-380
-385
-370
-350
-335
-320
-315
-310
-325
-305
-285
-290
-270
-270
-280
-265
-255
-245
-255
-265
-270
-265
-250
-250
-250
-260
-270
-265
-260
-260
-270
-280
-280
-275
-265
-260
-265
-275
-270
-265
-260
-265
-260
-275
-280
-275
-260
-265
-270
-280
-290
-285
-280
-275
-280
-285
-305
-300
-295
-280
-290
-300
-305
-295
-290
-295
-295
-290
-315
-300
-290
-290
-295
-300
-310
-300
-295
-295
-290
-300
-295
-285
-295
-285
-285
-300
-300
-295
-285
-285
-285
-285
-300
-290
-285
-275
-295
-290
-305
-290
-285
-290
-280
-305
-310
-275
-250
-235
-225
-225
-235
-225
-215
-195
-195
-205
-195
-190
-185
-190
-185
-210
-220
-210
-215
-210
-215
-220
-230
-210
-180
-155
-145
-170
-200
-230
-230
-245
-235
-260
-275
-280
-280
-270
-285
-290
-315
-305
-305
-310
-300
-310
-320
-315
-325
-310
-320
-330
-340
-325
-325
-320
-325
-330
-340
-340
-370
-410
-435
-465
-490
-530
-500
-420
-265
-105
105
375
680
900
990
900
570
110
-260
-435
-440
-390
-350
-340
-350
-340
-345
-340
-355
-360
-350
-350
-345
-365
-370
-365
-370
-360
-365
-365
-375
-365
-340
-355
-355
-360
-375
-360
-355
-340
-350
-360
-365
-365
-355
-340
-345
-350
-365
-360
-345
-345
-345
-350
-365
-350
-355
-340
-355
-355
-365
-360
-355
-345
-355
-365
-370
-370
-370
-345
-345
-370
-370
-360
-340
-335
-345
-340
-355
-345
-355
-350
-355
-360
-365
-355
-350
-340
-340
-350
-360
-350
-350
-355
-365
-360
-370
-365
-355
-355
-335
-350
-350
-340
-335
-315
-310
-310
-300
-290
-280
-265
-265
-265
-270
-255
-250
-245
-250
-250
-255
-250
-250
-240
-250
-260
-255
-265
-250
-230
-235
-245
-260
-265
-250
-245
-250
-260
-265
-265
-270
-260
-270
-275
-290
-275
-265
-260
-255
-270
-285
-290
-270
-270
-280
-275
-290
-290
-280
-280
-280
-285
-310
-300
-295
-280
-285
-305
-315
-305
-305
-295
-285
-305
-320
-320
-300
-300
-300
-305
-315
-310
-295
-275
-290
-295
-310
-300
-295
-290
-290
-295
-310
-285
-290
-290
-285
-295
-305
-310
-300
-280
-285
-295
-300
-290
-300
-275
-270
-265
-260
-260
-235
-205
-205
-215
-235
-215
-195
-185
-175
-180
-180
-190
-175
-175
-190
-195
-210
-195
-190
-190
-195
-210
-215
-195
-170
-175
-205
-230
-245
-245
-245
-260
-265
-285
-295
-295
-295
-305
-305
-315
-315
-320
-315
-305
-305
-315
-320
-315
-315
-295
-315
-310
-325
-325
-315
-305
-305
-315
-330
-330
-340
-365
-425
-450
-470
-510
-535
-490
-400
-270
-115
95
370
645
830
875
760
465
75
-250
-415
-440
-410
-365
-340
-340
-350
-345
-365
-355
-360
-340
-330
-345
-360
-360
-345
-345
-360
-355
-370
-355
-350
-335
-335
-345
-355
-340
-340
-325
-335
-355
-360
-360
-345
-345
-335
-345
-360
-345
-335
-335
-330
-350
-365
-350
-345
-325
-335
-345
-365
-355
-355
-350
-345
-345
-345
-335
-330
-320
-330
-325
-340
-330
-330
-320
-325
-345
-345
-345
-345
-325
-340
-335
-345
-335
-335
-340
-325
-340
-350
-355
-345
-335
-335
-345
-355
-355
-350
-335
-345
-350
-370
-360
-350
-335
-330
-340
-345
-330
-320
-310
-300
-305
-295
-285
-275
-275
-260
-265
-280
-270
-260
-250
-255
-255
-260
-260
-250
-240
-255
-255
-270
-260
-255
-255
-245
-250
-265
-265
-245
-255
-255
-255
-265
-265
-260
-260
-255
-270
-280
-285
-270
-255
-260
-275
-295
-295
-280
-285
-270
-290
-290
-285
-290
-285
-290
-305
-310
-290
-290
-295
-300
-315
-320
-315
-305
-295
-290
-300
-305
-310
-290
-290
-295
-310
-320
-320
-315
-310
-295
-295
-310
-310
-300
-295
-285
-290
-310
-305
-300
-280
-300
-310
-320
-315
-305
-300
-310
-300
-305
-290
-285
-260
-255
-250
-255
-245
-240
-230
-220
-225
-220
-210
-200
-190
-195
-205
-230
-210
-200
-205
-215
-215
-225
-225
-225
-210
-210
-200
-200
-220
-220
-230
-240
-255
-270
-280
-280
-285
-300
-310
-320
-310
-315
-320
-310
-320
-330
-330
-325
-315
-320
-320
-335
-345
-335
-320
-335
-335
-350
-340
-330
-325
-340
-330
-355
-345
-345
-365
-390
-425
-445
-485
-530
-545
-510
-430
-310
-180
-15
210
460
685
825
885
785
515
170
-155
-350
-435
-455
-425
-390
-380
-365
-370
-370
-350
-355
-370
-375
-385
-365
-365
-365
-375
-365
-370
-360
-360
-370
-375
-380
-365
-370
-345
-350
-355
-370
-370
-365
-360
-360
-355
-360
-365
-355
-365
-370
-375
-370
-370
-355
-345
-360
-365
-375
-370
-370
-370
-375
-375
-380
-375
-370
-360
-365
-375
-380
-365
-355
-355
-360
-365
-375
-365
-365
-350
-345
-350
-370
-370
-360
-345
-340
-350
-370
-360
-355
-355
-360
-370
-390
-385
-380
-375
-385
-410
-415
-405
-400
-400
-395
-400
-420
-420
-415
-420
-420
-430
-435
-415
-405
-390
-375
-385
-375
-365
-345
-335
-325
-325
-320
-305
-290
-280
-285
-285
-280
-285
-270
-260
-265
-270
-280
-280
-265
-265
-265
-255
-275
-270
-265
-255
-265
-270
-280
-285
-270
-260
-265
-275
-285
-275
-270
-270
-265
-275
-295
-290
-280
-270
-275
-280
-300
-290
-280
-285
-285
-285
-295
-300
-295
-290
-290
-300
-305
-305
-295
-305
-295
-305
-310
-320
-300
-295
-300
-305
-310
-310
-300
-300
-295
-300
-310
-305
-300
-300
-295
-305
-315
-310
-305
-300
-285
-295
-315
-300
-305
-295
-295
-305
-310
-300
-295
-280
-290
-290
-305
-295
-300
-285
-275
-275
-270
-265
-235
-225
-230
-235
-245
-240
-230
-205
-215
-200
-200
-185
-190
-185
-195
-200
-215
-220
-215
-195
-195
-215
-220
-225
-195
-170
-175
-200
-235
-250
-250
-260
-270
-295
-305
-300
-290
-285
-290
-310
-330
-320
-320
-315
-310
-330
-325
-315
-320
-305
-315
-325
-345
-335
-330
-310
-320
-335
-335
-340
-330
-320
-320
-335
-370
-405
-440
-435
-470
-520
-545
-500
-385
-235
-90
85
315
585
790
905
925
770
440
45
-265
-410
-470
-445
-415
-375
-355
-355
-355
-360
-365
-365
-360
-350
-345
-360
-380
-380
-375
-360
-370
-370
-385
-370
-365
-370
-355
-370
-380
-370
-360
-350
-350
-365
-370
-370
-355
-360
-355
-370
-375
-365
-360
-360
-350
-365
-375
-365
-355
-360
-355
-365
-370
-365
-355
-345
-340
-355
-360
-375
-365
-345
-360
-365
-365
-365
-360
-355
-355
-345
-365
-350
-355
-345
-340
-350
-360
-360
-350
-345
-350
-355
-365
-370
-365
-360
-360
-380
-390
-405
-385
-375
-375
-385
-390
-390
-385
-370
-380
-385
-385
-380
-370
-365
-365
-365
-350
-345
-330
-310
-300
-300
-305
-290
-275
-260
-255
-260
-280
-260
-245
-235
-230
-235
-245
-240
-225
-230
-225
-230
-240
-240
-230
-225
-230
-240
-245
-235
-230
-225
-230
-235
-255
-260
-245
-240
-235
-240
-250
-240
-235
-230
-235
-255
-260
-260
-250
-240
-245
-250
-265
-265
-250
-240
-260
-265
-280
-270
-270
-255
-265
-265
-290
-280
-270
-265
-265
-270
-275
-270
-265
-275
-280
-285
-285
-295
-280
-275
-260
-275
-290
-290
-280
-270
-265
-275
-290
-285
-275
-270
-280
-275
-275
-275
-270
-255
-255
-255
-275
-285
-265
-250
-260
-260
-265
-235
-220
-200
-205
-200
-215
-200
-200
-185
-170
-165
-155
-165
-155
-150
-160
-160
-175
-180
-180
-175
-175
-180
-195
-190
-190
-180
-165
-145
-160
-175
-190
-215
-230
-245
-265
-275
-280
-270
-280
-295
-290
-295
-295
-290
-290
-295
-310
-305
-295
-290
-300
-305
-310
-305
-290
-285
-300
-310
-320
-325
-340
-365
-405
-440
-460
-495
-520
-485
-405
-285
-150
10
205
490
745
925
990
950
735
365
-35
-320
-435
-455
-440
-415
-400
-375
-345
-340
-325
-325
-350
-345
-345
-335
-330
-325
-330
-340
-350
-350
-335
-335
-335
-350
-360
-345
-345
-350
-335
-335
-350
-335
-330
-320
-325
-335
-335
-335
-335
-330
-335
-330
-345
-340
-330
-320
-330
-325
-345
-340
-330
-325
-325
-325
-340
-330
-320
-320
-325
-335
-340
-330
-320
-310
-315
-320
-330
-320
-320
-320
-310
-325
-320
-330
-315
-310
-310
-330
-345
-345
-330
-330
-325
-330
-335
-325
-330
-315
-325
-325
-350
-345
-335
-315
-330
-325
-345
-345
-335
-330
-330
-335
